Wavelength (nm),Absorbance (AU),Std.Dev.
190,0.25688648223877,0.0000786940240702677
191,0.238412857055664,0.0000633422124406092
192,0.22300910949707,0.000049769557163778
193,0.209599018096924,0.0000516207883449774
194,0.198408126831055,0.0000409982913755451
195,0.18834114074707,0.0000504896025160805
196,0.179656028747559,0.000042619613439086
197,0.171669960021973,0.0000352650013162733
198,0.16403341293335,0.0000321122478433684
199,0.156716823577881,0.000035444271755006
200,0.149651050567627,0.0000320387024985169
201,0.142750263214111,0.000037932538296608
202,0.136334419250488,0.000038051485716362
203,0.130068302154541,0.0000567045397766393
204,0.124194622039795,0.0000537801714247513
205,0.118636608123779,0.0000519774375245306
206,0.113219261169434,0.0000387399011971256
207,0.108377456665039,0.0000386370530206762
208,0.103734016418457,0.0000332044417544435
209,0.0994739532470703,0.0000356489595285905
210,0.0954899787902832,0.000037606705003987
211,0.0918960571289063,0.0000469339553808757
212,0.0886387825012207,0.0000407856078726637
213,0.0854573249816895,0.0000368293043764962
214,0.0827240943908691,0.0000293710014237108
215,0.0800886154174805,0.0000408413183314588
216,0.0775761604309082,0.0000423130850193988
217,0.075347900390625,0.0000312655765043492
218,0.0731601715087891,0.0000344207405399103
219,0.0710973739624023,0.0000380626879831865
220,0.0691537857055664,0.000030987995656635
221,0.0672945976257324,0.0000340738437842284
222,0.0655269622802734,0.0000359459003799464
223,0.0638384819030762,0.0000439078739417336
224,0.0622496604919434,0.0000383127603448596
225,0.0607399940490723,0.0000292910590893468
226,0.059356689453125,0.0000358794217754512
227,0.057955265045166,0.0000288126658043415
228,0.0565862655639648,0.000035210961486064
229,0.0553412437438965,0.0000479369591324588
230,0.0541605949401856,0.0000356529456365864
231,0.0529942512512207,0.0000326598645882536
232,0.051720142364502,0.0000425208022467324
233,0.0505342483520508,0.0000433620411082989
234,0.0494413375854492,0.00003297510817857
235,0.0482850074768066,0.0000309384280498726
236,0.0471310615539551,0.0000351754274791822
237,0.046086311340332,0.0000390562817627303
238,0.0451540946960449,0.00002929736549245
239,0.0442347526550293,0.0000325264463450491
240,0.0433473587036133,0.0000390497318090667
241,0.0425052642822266,0.0000408893076360183
242,0.0417618751525879,0.0000363828626555366
243,0.0410265922546387,0.0000338453627086932
244,0.0403456687927246,0.0000439803121520934
245,0.0397334098815918,0.0000415300254644111
246,0.0391273498535156,0.0000320803693631312
247,0.0385942459106445,0.0000370800298733054
248,0.0380206108093262,0.0000451524756891772
249,0.0375370979309082,0.0000377801303279236
250,0.0370573997497559,0.0000319863204522759
251,0.0364995002746582,0.0000324275562678733
252,0.0360326766967773,0.0000246552939811611
253,0.0356359481811523,0.0000287183071271874
254,0.0352025032043457,0.0000390184224097928
255,0.0348267555236816,0.0000491489361828809
256,0.0344448089599609,0.000051545854192087
257,0.0340962409973145,0.00003587308405462
258,0.0337209701538086,0.000029632561699123
259,0.0334444046020508,0.0000453446815738422
260,0.0331168174743652,0.0000621938981463637
261,0.0327301025390625,0.00006077289113628
262,0.0325841903686523,0.0000446600703200077
263,0.032099723815918,0.0000339158285180727
264,0.0317926406860352,0.0000439389335121881
265,0.0315313339233398,0.0000481369413905992
266,0.0311365127563477,0.0000535397042045698
267,0.0308198928833008,0.0000407409846559407
268,0.0305399894714355,0.0000426556091776404
269,0.0302062034606934,0.0000438417992942735
270,0.0298399925231934,0.0000453747576427518
271,0.0296878814697266,0.0000553336598601481
272,0.0293893814086914,0.0000564956455758705
273,0.0290007591247559,0.0000550411378116916
274,0.0286960601806641,0.0000556808203199826
275,0.0283317565917969,0.0000434654790524367
276,0.0280075073242187,0.0000323345172085009
277,0.027646541595459,0.0000334831711489775
278,0.0272326469421387,0.0000381990911168962
279,0.0268759727478027,0.0000364585587570482
280,0.0264573097229004,0.0000298537763828734
281,0.0259876251220703,0.0000399349340748026
282,0.0255575180053711,0.0000370800298733054
283,0.0250720977783203,0.0000359830431566243
284,0.0245175361633301,0.0000379767194915045
285,0.0240507125854492,0.0000322165172695544
286,0.0234975814819336,0.0000289656496972798
287,0.0230259895324707,0.0000388322316579863
288,0.0224370956420898,0.0000416038712659243
289,0.0218644142150879,0.0000427341610159972
290,0.0213518142700195,0.0000339794573809049
291,0.0208096504211426,0.0000357802666225829
292,0.0203022956848145,0.0000335018403286544
293,0.0197739601135254,0.0000295518842997875
294,0.0193490982055664,0.000028006826611744
295,0.0188684463500977,0.0000258571516730058
296,0.0184168815612793,0.0000398030517306096
297,0.0179538726806641,0.0000410661728282835
298,0.0175690650939941,0.0000357969438832311
299,0.0171318054199219,0.0000423016645740831
300,0.0168280601501465,0.0000382652535132796
301,0.0164036750793457,0.0000374377907848599
302,0.0161190032958984,0.0000344908548737052
303,0.0157690048217773,0.0000405746114836202
304,0.0154542922973633,0.0000429643245505603
305,0.0151629447937012,0.000064751606738159
306,0.0148954391479492,0.0000463379251159152
307,0.0146527290344238,0.0000467300415039063
308,0.0144176483154297,0.0000507254787868319
309,0.0141501426696777,0.0000543782552969405
310,0.0138368606567383,0.0000516505114589918
311,0.0136585235595703,0.0000421832476703576
312,0.0134420394897461,0.0000353133250058446
313,0.0131902694702148,0.0000489426365329295
314,0.0129804611206055,0.0000609288929733805
315,0.0127253532409668,0.0000618511284402506
316,0.0126199722290039,0.0000550834640518569
317,0.012305736541748,0.0000585830884909642
318,0.0120930671691895,0.0000468236122641276
319,0.0119013786315918,0.0000393751730082363
320,0.0117449760437012,0.0000534972191128096
321,0.0115046501159668,0.000045462365862095
322,0.0113410949707031,0.0000406383051832019
323,0.011131763458252,0.0000382221494442898
324,0.0109362602233887,0.0000447770149748554
325,0.0107588768005371,0.0000397673327761184
326,0.0105605125427246,0.0000476956352595239
327,0.0103111267089844,0.0000551803821543313
328,0.0101661682128906,0.0000454486100399566
329,0.0100889205932617,0.0000592296246688566
330,0.00987768173217773,0.0000641270636632171
331,0.00973129272460938,0.0000442187734110081
332,0.00948667526245117,0.0000472008576069388
333,0.00927352905273438,0.0000421697701634894
334,0.00922584533691406,0.0000425475306035515
335,0.00911521911621094,0.0000488042307295749
336,0.00882768630981445,0.0000495463408025543
337,0.00870847702026367,0.0000440397258339646
338,0.00855064392089844,0.0000533280062031783
339,0.00846958160400391,0.000041588839237188
340,0.00828027725219727,0.0000440035705377935
341,0.00820589065551758,0.0000416175320350549
342,0.00796747207641602,0.0000429034216531815
343,0.00781154632568359,0.0000439557482825496
344,0.00766706466674805,0.0000453045490897554
345,0.00757789611816406,0.0000419961993160606
346,0.00742340087890625,0.0000502944543593621
347,0.00732946395874023,0.0000455498055804796
348,0.00718975067138672,0.0000466618721875193
349,0.00708293914794922,0.0000472826782637741
350,0.0068817138671875,0.0000533269402719536
351,0.00677204132080078,0.0000542767632222136
352,0.00664710998535156,0.0000500236042792849
353,0.0064697265625,0.0000553203035478673
354,0.00640296936035156,0.0000476109426217472
355,0.00629281997680664,0.0000434301545546333
356,0.00617313385009766,0.0000461781768278518
357,0.00611162185668945,0.0000472850826103859
358,0.00608110427856445,0.0000336280087845967
359,0.00591850280761719,0.0000485976374613916
360,0.0057682991027832,0.0000608840950556959
361,0.00554513931274414,0.0000662100027378456
362,0.00548028945922852,0.0000675343509313282
363,0.00536537170410156,0.0000638320943095456
364,0.00529098510742188,0.00005192929607415
365,0.00521135330200195,0.0000589680050413218
366,0.00539922714233398,0.0000631084566366795
367,0.00503730773925781,0.0000491558750195257
368,0.00500011444091797,0.0000405297559607707
369,0.00501346588134766,0.0000341870960334023
370,0.00482940673828125,0.0000372780238329525
371,0.00492572784423828,0.0000383846507978403
372,0.00483798980712891,0.0000639335323867138
373,0.00471782684326172,0.0000616264756490934
374,0.00481510162353516,0.0000703718597960406
375,0.0046844482421875,0.0000779625108109563
376,0.00458955764770508,0.0000722136776953683
377,0.00475311279296875,0.0000650284216008141
378,0.00484037399291992,0.0000409351578059467
379,0.00452709197998047,0.0000379946768033244
380,0.00440549850463867,0.0000464971245664931
381,0.00435972213745117,0.0000596284818668356
382,0.00443792343139648,0.0000739282154297598
383,0.00429582595825195,0.0000710039189453849
384,0.00432634353637695,0.0000530994092465613
385,0.00421667098999023,0.0000629352796626908
386,0.00417566299438477,0.0000618492903407706
387,0.00439262390136719,0.0000635894129874025
388,0.00420951843261719,0.0000601174231913692
389,0.00376319885253906,0.0000662872256014721
390,0.00399971008300781,0.0000715589445468352
391,0.00391721725463867,0.0000660690534301739
392,0.00409317016601563,0.0000711910052298016
393,0.00371408462524414,0.0000642404250398039
394,0.00353908538818359,0.0000588715290678031
395,0.0035552978515625,0.0000662220210977709
396,0.00343513488769531,0.0000620658103093743
397,0.00374507904052734,0.0000828407645560302
398,0.00361299514770508,0.0000712899459496718
399,0.00308561325073242,0.0000805290295316939
400,0.00334787368774414,0.0000613528418002191
401,0.00320625305175781,0.0000443586720640477
402,0.00324201583862305,0.0000703023583040394
403,0.0031886100769043,0.000101958444678529
404,0.00333261489868164,0.0000707601279460079
405,0.00311946868896484,0.000057625331608683
406,0.00260639190673828,0.0000766907742997167
407,0.00292491912841797,0.0000755768092790999
408,0.00319385528564453,0.0000863022565550516
409,0.00274991989135742,0.0000611375159015419
410,0.00270414352416992,0.0000799836591577978
411,0.00290870666503906,0.0000938969735347565
412,0.00299263000488281,0.0000653667048957588
413,0.002532958984375,0.000049832334847499
414,0.00241565704345703,0.0000495119105043545
415,0.00251102447509766,0.0000681727066065274
416,0.0023493766784668,0.0000666020497749282
417,0.00231075286865234,0.0000635786851234734
418,0.00246572494506836,0.0000762805330885132
419,0.00245475769042969,0.0000604352300854589
420,0.00262880325317383,0.0000497752674976959
421,0.00280904769897461,0.0000640596604299418
422,0.00197792053222656,0.0000683043223114005
423,0.00210046768188477,0.0000524499199159319
424,0.00204563140869141,0.0000636965922527182
425,0.00200414657592773,0.0000704558165255122
426,0.00214385986328125,0.0000649216899170931
427,0.00259065628051758,0.0000586034613374696
428,0.00173425674438477,0.0000508239966932239
429,0.00246763229370117,0.0000510928289270006
430,0.00188016891479492,0.0000530854907996848
431,0.0014495849609375,0.0000651559198707269
432,0.00166034698486328,0.0000570383751090394
433,0.00211668014526367,0.000058199533014259
434,0.00163745880126953,0.0000553367416282503
435,0.00153255462646484,0.0000503802772816189
436,0.00179481506347656,0.0000462839181918343
437,0.00166845321655273,0.0000526716232987042
438,0.00182437896728516,0.0000641288364758144
439,0.00157356262207031,0.0000564573987108948
440,0.00173568725585937,0.000055418858893426
441,0.00205659866333008,0.0000748011457486251
442,0.00115633010864258,0.0000758111099653512
443,0.00178718566894531,0.0000686098914348451
444,0.00147628784179687,0.000062843085290058
445,0.00144433975219727,0.0000834805555344181
446,0.00143766403198242,0.0000587052195183109
447,0.00116777420043945,0.000062785168719685
448,0.00136327743530273,0.0000649812013328183
449,0.00145387649536133,0.0000595359406281999
450,0.00121116638183594,0.0000592373018723456
451,0.00122261047363281,0.0000600360516950117
452,0.00118494033813477,0.0000613027903747108
453,0.00113105773925781,0.0000656842103669925
454,0.00125741958618164,0.0000568707028824355
455,0.00118064880371094,0.0000540837188786002
456,0.00122356414794922,0.0000743009612304018
457,0.00137948989868164,0.0000590537360978166
458,0.00101184844970703,0.0000552956372648228
459,0.00102329254150391,0.0000764442988885797
460,0.00089263916015625,0.0000588473853611029
461,0.00113773345947266,0.0000500076931017857
462,0.00108814239501953,0.0000457713998642596
463,0.00150394439697266,0.0000552287774269081
464,0.0010523796081543,0.000062474767007637
465,0.00101089477539062,0.0000832214044221849
466,0.000532627105712891,0.0000580381539580108
467,0.00100374221801758,0.0000443970989189314
468,0.000784873962402344,0.0000548269429769457
469,0.000778675079345703,0.0000851257836168091
470,0.000904560089111328,0.0000644242118426043
471,0.000904083251953125,0.0000627471319183196
472,0.00107526779174805,0.0000446893351735694
473,0.000795841217041016,0.0000618933896621245
474,0.000767707824707031,0.0000781343918236444
475,0.00107383728027344,0.0000582014863792436
476,0.000630378723144531,0.0000471333692400416
477,0.000859737396240234,0.0000561038989375817
478,0.000889778137207031,0.0000603439260590771
479,0.000863075256347656,0.0000687456314545701
480,0.000721454620361328,0.0000566543951463113
481,0.000669956207275391,0.0000563455289283351
482,0.000616073608398438,0.0000540248293363991
483,0.00089263916015625,0.0000655074299346274
484,0.000359535217285156,0.000081575396776216
485,0.00626373291015625,0.0000764472732013209
486,-0.00259304046630859,0.0000572353582058186
487,0.000334262847900391,0.0000467738121721416
488,0.000216007232666016,0.0000471056227923005
489,0.000619411468505859,0.0000611784118089955
490,0.000415802001953125,0.0000737496148483336
491,0.000475883483886719,0.0000663746362354481
492,0.000489711761474609,0.0000462532043457031
493,0.000530719757080078,0.0000700317797811145
494,0.000301837921142578,0.0000758186076273878
495,0.00067901611328125,0.0000763788347046943
496,0.000431060791015625,0.0000723300829411479
497,0.000198841094970703,0.0000934844082686309
498,0.000571250915527344,0.0000929086336920679
499,0.000370025634765625,0.000101746368205113
500,0.000166416168212891,0.0000591095388554033
501,0.000465869903564453,0.0000574326554292501
502,0.000351428985595703,0.0000611765534971986
503,0.000482082366943359,0.0000781445762761491
504,0.000292301177978516,0.0000702975067984862
505,0.000424385070800781,0.0000707247727891413
506,0.000271797180175781,0.0000568657050616067
507,0.000176906585693359,0.0000499860912599263
508,0.00029754638671875,0.0000537674864246319
509,0.000345706939697266,0.0000616781076545051
510,0.000273704528808594,0.0000624092225583893
511,0.000135898590087891,0.0000766981859698605
512,0.000283241271972656,0.0000768403514041278
513,0.000119209289550781,0.0000699879353179785
514,0.000204086303710937,0.000052243598651132
515,0.000252723693847656,0.000055734900680861
516,0.000224590301513672,0.0000659915752635458
517,0.0000958442687988281,0.0000522250985999959
518,0.000182151794433594,0.0000461646342986643
519,0.0000638961791992188,0.0000474698515953036
520,0.0000705718994140625,0.0000608355267519686
521,0.000217914581298828,0.0000617665192500111
522,0.000124931335449219,0.0000577317678707713
523,0.000154972076416016,0.0000564433012276288
524,0.0000643730163574219,0.0000619356220474354
525,0.000146389007568359,0.0000667776348996628
526,0.0000658035278320313,0.0000629388923764312
527,-0.00003814697265625,0.0000558581709445427
528,0.000215530395507812,0.0000553048884101791
529,0.0000739097595214844,0.0000417607003132082
530,0.0000195503234863281,0.0000487482919587439
531,0.0000667572021484375,0.00004063201025538
532,0.000230312347412109,0.0000597798633064787
533,0.0000791549682617188,0.0000656495850560113
534,0.000107288360595703,0.0000534557636381038
535,-0.0000123977661132812,0.0000708179437660496
536,-0.000116348266601562,0.0000681760417845635
537,0.00009918212890625,0.0000490377812659547
538,0.000184535980224609,0.0000402645147658469
539,-0.000026702880859375,0.0000569306425100363
540,0.00000476837158203125,0.0000526197960154727
541,-0.0000448226928710938,0.0000500815236770438
542,-0.000102043151855469,0.0000538688827881575
543,-0.0000119209289550781,0.0000495612531703269
544,-0.000104427337646484,0.0000513857031957553
545,-0.000220298767089844,0.0000429014342335324
546,-0.000141143798828125,0.0000464359585996229
547,0.000173568725585937,0.0000506312601441513
548,-0.000214099884033203,0.0000595531240957478
549,-0.000185012817382812,0.0000652866519271652
550,-0.000163555145263672,0.0000490991791569561
551,-0.0000324249267578125,0.0000645617086067688
552,-0.000143527984619141,0.0000593389310479544
553,-0.000115394592285156,0.0000410924640375722
554,-0.000230789184570312,0.0000463232021992813
555,0.0000619888305664063,0.0000428225255262889
556,-0.000126361846923828,0.0000454986112763116
557,-0.000187397003173828,0.0000406543877926707
558,-0.000198841094970703,0.0000463011090462908
559,-0.000172615051269531,0.0000540721563517169
560,-0.000104904174804687,0.0000498665439095683
561,-0.000262737274169922,0.0000466703987974009
562,-0.000286579132080078,0.00005104385317454
563,-0.000127315521240234,0.0000430957657367772
564,-0.000178337097167969,0.0000296378364874372
565,-0.000303268432617187,0.0000388841625636792
566,-0.000124931335449219,0.0000496151297205414
567,-0.0000281333923339844,0.0000324398244965989
568,-0.0000977516174316406,0.0000241762787549337
569,0.000110626220703125,0.0000364624563590474
570,0.0000710487365722656,0.0000427281748612251
571,-0.0000119209289550781,0.0000419914616685614
572,-0.000634670257568359,0.0000433030103039077
573,0.000319480895996094,0.0000422485525864287
574,-0.000202655792236328,0.0000334925070396228
575,-0.000462532043457031,0.0000314513779509862
576,0.000207424163818359,0.0000332865125904603
577,0.0000848770141601563,0.0000351058707956544
578,-0.000581741333007813,0.0000393311174628694
579,-0.000217437744140625,0.0000452204063460149
580,0.000322818756103516,0.0000363789565259551
581,0.000439643859863281,0.0000287286968056245
582,-0.000862598419189453,0.0000448226928710938
583,-0.000701904296875,0.0000466362830042472
584,0.000341892242431641,0.0000410114608453838
585,-0.0000834465026855469,0.0000457229401817381
586,-0.000713825225830078,0.000029543708240634
587,0.000292778015136719,0.0000292580495989452
588,-0.000670909881591797,0.0000383609492514014
589,-0.000459671020507813,0.0000525224820178465
590,-0.000149726867675781,0.000037539381947207
591,-0.000496864318847656,0.0000303855102120513
592,0.000493049621582031,0.0000378657945558392
593,-0.000348567962646484,0.000039453052336486
594,-0.000171184539794922,0.0000340229243552269
595,-0.000278472900390625,0.0000253189979304625
596,-0.000576019287109375,0.0000320777113930895
597,-0.0000104904174804687,0.0000304172961830591
598,-0.000209331512451172,0.000035521167892587
599,-0.0000667572021484375,0.0000419325348103519
600,-0.000292301177978516,0.0000440513408770978
601,-0.000443935394287109,0.0000357786779066163
602,-0.000293254852294922,0.0000374999911892994
603,-0.00032806396484375,0.0000362686304657063
604,-0.000660896301269531,0.0000459832740763893
605,-0.0000324249267578125,0.0000263546909498141
606,-0.000685691833496094,0.0000356306176881244
607,-0.000367641448974609,0.0000363242266070054
608,-0.000646114349365234,0.0000286732416844224
609,-0.00048065185546875,0.0000283703082351886
610,-0.000329971313476562,0.0000340788481428755
611,-0.000672340393066406,0.0000358429645770704
612,-0.000505447387695313,0.0000379535120555626
613,-0.000525474548339844,0.0000360019949011738
614,-0.000698089599609375,0.0000286196653382742
615,-0.000571727752685547,0.0000242613602731518
616,-0.000914573669433594,0.0000337402304308285
617,-0.000500679016113281,0.0000412657036631296
618,-0.000592708587646484,0.0000378380125118534
619,-0.000561237335205078,0.000031490211844743
620,-0.000490188598632813,0.000030970564248287
621,-0.000750541687011719,0.0000319231704775163
622,-0.000458240509033203,0.0000439984030701533
623,-0.000803470611572266,0.0000439221123046024
624,-0.000585556030273438,0.0000518876834222083
625,-0.000813007354736328,0.0000353776539142616
626,-0.000868320465087891,0.0000315019428999544
627,-0.000624179840087891,0.0000553357143912863
628,-0.00089263916015625,0.0000451612872793258
629,-0.000551700592041016,0.0000338772582538746
630,-0.000864982604980469,0.0000329768319616381
631,-0.000762462615966797,0.000037882303949997
632,-0.000767230987548828,0.0000447833619131819
633,-0.000702381134033203,0.0000469581718601615
634,-0.000833034515380859,0.0000381789967108579
635,-0.000782966613769531,0.0000342219952485127
636,-0.000794410705566406,0.0000367389028258859
637,-0.000977993011474609,0.0000372993656329203
638,-0.000878334045410156,0.0000399256808973077
639,-0.000919342041015625,0.0000364850542398172
640,-0.000824928283691406,0.0000406145192255404
641,-0.000703811645507813,0.0000467701661810348
642,-0.000620365142822266,0.0000438521705285056
643,-0.000716209411621094,0.0000461757148452399
644,-0.000729084014892578,0.0000517857008740367
645,-0.000867366790771484,0.0000434863985478375
646,-0.000833988189697266,0.0000492194354397723
647,-0.000820159912109375,0.000045624620531932
648,-0.000829696655273438,0.0000506503423485566
649,-0.000917434692382813,0.0000538424958736239
650,-0.000889778137207031,0.000042345314356658
651,-0.000833034515380859,0.0000347437309874475
652,-0.000881671905517578,0.000034091355825606
653,-0.000768661499023438,0.0000450768771167485
654,-0.00118064880371094,0.0000478051546580484
655,0.00302791595458984,0.0000419589605323696
656,0.000409126281738281,0.0000302988649061652
657,-0.00680255889892578,0.0000338369641471335
658,-0.000498771667480469,0.0000287707119385511
659,-0.00115633010864258,0.0000405052045863183
660,-0.000906944274902344,0.00004433175344709
661,-0.000905990600585938,0.000043263611687522
662,-0.000936985015869141,0.0000381797411367149
663,-0.000966072082519531,0.0000327806038709587
664,-0.00093841552734375,0.0000498072332691085
665,-0.000947475433349609,0.0000521477627353375
666,-0.00107669830322266,0.0000492875273110296
667,-0.000996589660644531,0.000047389553620527
668,-0.000996589660644531,0.0000386980602858591
669,-0.00104999542236328,0.0000343107447399111
670,-0.00103569030761719,0.0000402186067275229
671,-0.0010223388671875,0.0000435582326860956
672,-0.00101566314697266,0.0000354137875738533
673,-0.00115966796875,0.0000474171339245678
674,-0.00106906890869141,0.0000525376315895865
675,-0.00100994110107422,0.0000310081671504552
676,-0.000983715057373047,0.0000293182154692899
677,-0.00102806091308594,0.0000348751864993538
678,-0.000998973846435547,0.0000378350078257125
679,-0.000983715057373047,0.0000362082395678895
680,-0.0010218620300293,0.0000270560445758334
681,-0.00103902816772461,0.0000346610106261081
682,-0.00106096267700195,0.0000437392513102288
683,-0.000969409942626953,0.0000339593769355104
684,-0.000978469848632813,0.0000285082230446305
685,-0.000963687896728516,0.000028737599254622
686,-0.000995635986328125,0.0000444661835741988
687,-0.000935554504394531,0.0000389425932853411
688,-0.00108194351196289,0.0000266885080144124
689,-0.000980377197265625,0.0000248722119535471
690,-0.00104379653930664,0.0000380328079393434
691,-0.000988960266113281,0.0000295514034177498
692,-0.00104522705078125,0.0000315280964477551
693,-0.00103092193603516,0.0000493532217609512
694,-0.00107192993164062,0.0000410606356917616
695,-0.000993728637695313,0.000040179720495118
696,-0.00100898742675781,0.0000441119475249414
697,-0.000910282135009766,0.0000389681291756177
698,-0.00105428695678711,0.000035934829153079
699,-0.000996589660644531,0.0000389907327121755
700,-0.00106620788574219,0.0000467883932954257
701,-0.00104904174804687,0.000040068510357944
702,-0.000968456268310547,0.0000448632564023555
703,-0.00104427337646484,0.0000363992638223318
704,-0.00102090835571289,0.0000415943060580117
705,-0.00108623504638672,0.0000372864095683352
706,-0.000929832458496094,0.0000448607222562014
707,-0.000910758972167969,0.0000275154047000422
708,-0.00113725662231445,0.0000355811273692658
709,-0.00104713439941406,0.000038267481713488
710,-0.00102615356445312,0.0000444201390756081
711,-0.00105619430541992,0.0000400592880348549
712,-0.00107431411743164,0.0000475559908192029
713,-0.00102663040161133,0.0000462089405427931
714,-0.00106430053710937,0.0000455348278394333
715,-0.00113725662231445,0.000046005519862983
716,-0.00117111206054687,0.0000508921755967836
717,-0.00111198425292969,0.0000488030659924954
718,-0.000982761383056641,0.0000551236954369294
719,-0.00106239318847656,0.0000440797203201216
720,-0.00107669830322266,0.0000468090421116338
721,-0.00116109848022461,0.0000414443915109998
722,-0.00117301940917969,0.0000412691472641189
723,-0.00112056732177734,0.0000321317135672665
724,-0.00116872787475586,0.0000337503373398212
725,-0.0011744499206543,0.0000359213809330925
726,-0.00116300582885742,0.0000278286675670907
727,-0.00121164321899414,0.0000283547759004946
728,-0.00117015838623047,0.0000361170704240782
729,-0.00120115280151367,0.0000327406962796627
730,-0.00121879577636719,0.0000525365496221954
731,-0.00129556655883789,0.0000388519882097269
732,-0.00131845474243164,0.0000364421842765367
733,-0.00128269195556641,0.0000417375540060546
734,-0.00128793716430664,0.0000478800071288256
735,-0.0013575553894043,0.0000473667577783839
736,-0.00136184692382812,0.0000378072031585765
737,-0.00133419036865234,0.0000438145631242308
738,-0.00145626068115234,0.0000347232740025563
739,-0.00124120712280273,0.0000458780787912702
740,-0.0014801025390625,0.0000483419759236788
741,-0.00140047073364258,0.0000541246933886059
742,-0.00126791000366211,0.0000566092270014078
743,-0.00137948989868164,0.0000500451899287754
744,-0.00131654739379883,0.0000523707452690334
745,-0.00148105621337891,0.0000619007364945632
746,-0.00137805938720703,0.0000583526732601011
747,-0.00138378143310547,0.000052547368293594
748,-0.00136327743530273,0.0000548227957043999
749,-0.00127077102661133,0.000038606881328971
750,-0.00124454498291016,0.0000395616821547503
751,-0.00132656097412109,0.0000404616770118359
752,-0.00133943557739258,0.0000413262691235608
753,-0.00126934051513672,0.000056220294043489
754,-0.00129795074462891,0.0000570244212539802
755,-0.00128793716430664,0.0000468393914814416
756,-0.00125741958618164,0.000058695535863606
757,-0.00123834609985352,0.000042638281689407
758,-0.00135231018066406,0.0000298775676685725
759,-0.00125837326049805,0.0000336161741867343
760,-0.00128889083862305,0.00003695564884493
761,-0.00135898590087891,0.000047518922239743
762,-0.00138950347900391,0.0000494728605329091
763,-0.00122308731079102,0.0000358778374502003
764,-0.00119113922119141,0.0000423848960088022
765,-0.00119113922119141,0.0000488891815871288
766,-0.0012974739074707,0.0000593657474421918
767,-0.00127458572387695,0.0000459102817608296
768,-0.00115108489990234,0.0000478657585399388
769,-0.00123882293701172,0.0000443586720640477
770,-0.00125360488891602,0.0000377176383649539
771,-0.00124406814575195,0.000040632709739964
772,-0.00130367279052734,0.0000355435645958795
773,-0.00116062164306641,0.0000359316653188456
774,-0.00127220153808594,0.0000387670369161857
775,-0.00123214721679687,0.0000656201391765053
776,-0.00125551223754883,0.0000567346052811872
777,-0.0012812614440918,0.0000356704792199422
778,-0.00116682052612305,0.0000420726046653349
779,-0.00117683410644531,0.000036175256585317
780,-0.00127696990966797,0.0000442354818088879
781,-0.00117921829223633,0.0000437847135938972
782,-0.00125217437744141,0.0000350256287003383
783,-0.00121307373046875,0.0000301875018752305
784,-0.00128889083862305,0.000037284122736643
785,-0.0012202262878418,0.0000467774578790676
786,-0.00121688842773437,0.0000497592769113366
787,-0.00116062164306641,0.000049249453629362
788,-0.00115203857421875,0.0000452656368148807
789,-0.00122165679931641,0.000045915234059184
790,-0.00121164321899414,0.0000474949916735681
791,-0.00129461288452148,0.0000496758140304253
792,-0.00122785568237305,0.0000481050473632809
793,-0.00125312805175781,0.0000454098212129785
794,-0.00124597549438477,0.0000605179434316952
795,-0.00134992599487305,0.0000531454212172209
796,-0.00133609771728516,0.0000460956288276557
797,-0.00135040283203125,0.0000469073028137854
798,-0.00126838684082031,0.0000629280536129899
799,-0.0013585090637207,0.0000566343248625774
800,-0.00131320953369141,0.0000424552466564188
801,-0.0013127326965332,0.0000366219008873366
802,-0.00135231018066406,0.0000312810263941251
803,-0.00123119354248047,0.0000551618365504545
804,-0.00139999389648437,0.0000357031324669646
805,-0.00132942199707031,0.0000357993257148201
806,-0.0013432502746582,0.0000567045397766393
807,-0.00130796432495117,0.0000543301486709179
808,-0.00134372711181641,0.0000457850587064042
809,-0.00140666961669922,0.0000360643073821493
810,-0.00137996673583984,0.0000454436068904434
811,-0.00136423110961914,0.0000538857636324085
812,-0.0014796257019043,0.0000305901350321737
813,-0.00135278701782227,0.0000251161271060611
814,-0.0013885498046875,0.0000316208117821414
815,-0.00149774551391602,0.0000499531020173097
816,-0.00148963928222656,0.0000457925072667484
817,-0.00141620635986328,0.0000371221632376478
818,-0.00150871276855469,0.0000481003205235954
819,-0.00149631500244141,0.0000507445255608386
820,-0.00146484375,0.0000601996289527764
821,-0.00149679183959961,0.000057081212050039
822,-0.0014348030090332,0.0000430013536477875
823,-0.00150680541992187,0.0000444930208599787
824,-0.00150299072265625,0.0000425535421701872
825,-0.00154638290405273,0.0000491454663971737
826,-0.00155925750732422,0.0000530458567698526
827,-0.00159025192260742,0.000046152319460155
828,-0.00156068801879883,0.0000565891406980392
829,-0.00153541564941406,0.0000541078870868846
830,-0.00173664093017578,0.0000558612237762736
831,-0.00159692764282227,0.0000524163124152996
832,-0.00167608261108398,0.0000573365702357228
833,-0.00167942047119141,0.0000493658895736779
834,-0.00158166885375977,0.0000473283399627433
835,-0.00171709060668945,0.0000491292708236916
836,-0.00166177749633789,0.0000555673871305741
837,-0.0016937255859375,0.000043126092121902
838,-0.00165367126464844,0.0000376361681709559
839,-0.00167036056518555,0.0000292842660594999
840,-0.00165462493896484,0.000035405761058582
841,-0.00167512893676758,0.0000490470537972404
842,-0.00164318084716797,0.0000404413012582826
843,-0.00163936614990234,0.0000439415208187419
844,-0.00159883499145508,0.0000492217451812241
845,-0.00166511535644531,0.0000381871845971285
846,-0.00161218643188477,0.0000378973062490881
847,-0.00153827667236328,0.0000529278505920875
848,-0.00155925750732422,0.0000419819847696391
849,-0.00156450271606445,0.0000502107489818122
850,-0.00147819519042969,0.0000396434968773394
851,-0.00153160095214844,0.0000516461091140906
852,-0.00138998031616211,0.0000590623986022416
853,-0.00142383575439453,0.0000449986251641059
854,-0.00151348114013672,0.0000555909103162261
855,-0.00150203704833984,0.0000612768216887065
856,-0.00150918960571289,0.0000380268291131419
857,-0.00148248672485352,0.0000412719019380374
858,-0.0014338493347168,0.0000458408934080298
859,-0.00142049789428711,0.0000767485663451271
860,-0.00131654739379883,0.0000680458487104539
861,-0.0014185905456543,0.0000522577413299785
862,-0.00136804580688477,0.0000474399055599514
863,-0.00140619277954102,0.0000472417856490739
864,-0.0013432502746582,0.0000328896679965179
865,-0.00132083892822266,0.0000609615373680972
866,-0.00126266479492187,0.0000582863943955624
867,-0.00133562088012695,0.0000528644478347477
868,-0.00132083892822266,0.0000554455208184594
869,-0.00124692916870117,0.0000526284374403395
870,-0.00129985809326172,0.0000563051610130456
871,-0.00125360488891602,0.0000560937662099914
872,-0.00131654739379883,0.0000527460358010286
873,-0.00134754180908203,0.0000674855148837729
874,-0.00123214721679687,0.0000529804494445517
875,-0.00128936767578125,0.0000478645709660706
876,-0.00121307373046875,0.0000492783000288537
877,-0.00124311447143555,0.0000455710156202466
878,-0.00119209289550781,0.0000470851040394861
879,-0.00130414962768555,0.000050629014706088
880,-0.00130891799926758,0.00004815819234067
881,-0.00123214721679687,0.0000528450894766371
882,-0.00118350982666016,0.0000699505646548929
883,-0.00122642517089844,0.0000586383697495955
884,-0.00125217437744141,0.0000434131362118536
885,-0.00113964080810547,0.000056914664781601
886,-0.00119352340698242,0.0000587110289444786
887,-0.00118160247802734,0.0000583526732601011
888,-0.00118780136108398,0.0000662529154409947
889,-0.00120878219604492,0.0000484383005162104
890,-0.00118112564086914,0.0000469533295634887
891,-0.00119256973266602,0.0000519905592744408
892,-0.00127029418945312,0.0000671663687753713
893,-0.00120019912719727,0.0000525744052322577
894,-0.00113058090209961,0.000047034372274167
895,-0.00107622146606445,0.0000605526868949476
896,-0.0012202262878418,0.0000707424525762681
897,-0.00120735168457031,0.0000629984722422823
898,-0.00127506256103516,0.0000505368658448078
899,-0.00129461288452148,0.0000570144521237744
900,-0.00121736526489258,0.0000601731841819572
901,-0.00123882293701172,0.0000480340959273743
902,-0.00123786926269531,0.0000440758514720587
903,-0.00127696990966797,0.0000654240738583195
904,-0.00113058090209961,0.0000671003242997147
905,-0.00127887725830078,0.0000510638943871596
906,-0.00125598907470703,0.0000758096103439606
907,-0.00133466720581055,0.0000512538950640181
908,-0.00130701065063477,0.0000709158018600467
909,-0.00125360488891602,0.000109624852300364
910,-0.00127315521240234,0.0000416884958741659
911,-0.00130748748779297,0.0000455473096323378
912,-0.0013737678527832,0.0000660776565076001
913,-0.00135946273803711,0.0000836302233443975
914,-0.00142192840576172,0.0000970266955948289
915,-0.00136613845825195,0.0000532373258569576
916,-0.00151443481445312,0.0000630940433770107
917,-0.00141048431396484,0.0000499155360134191
918,-0.00145435333251953,0.0000618805306064797
919,-0.0015411376953125,0.0000490980214168468
920,-0.00157642364501953,0.0000567536385294267
921,-0.00154924392700195,0.0000812850025201752
922,-0.00162506103515625,0.0000916371353844578
923,-0.00161981582641602,0.000054425274981728
924,-0.00182294845581055,0.0000566704462555037
925,-0.0019068717956543,0.0000727344712398302
926,-0.00192451477050781,0.0000506806346116983
927,-0.00198698043823242,0.0000702797150794832
928,-0.00203084945678711,0.0000688530401143725
929,-0.0021204948425293,0.0000759848652070265
930,-0.00217914581298828,0.0000779858389116612
931,-0.00224590301513672,0.000064153650708264
932,-0.00233364105224609,0.0000600095348396395
933,-0.00237846374511719,0.0000822485354993452
934,-0.00265598297119141,0.000081442893244469
935,-0.00261449813842773,0.0000778223953570303
936,-0.00267982482910156,0.0000676386407580258
937,-0.00276517868041992,0.0000885583017756549
938,-0.00293350219726562,0.0000644312700964565
939,-0.00298023223876953,0.0000496666588858524
940,-0.00311470031738281,0.0000529611334873765
941,-0.00312614440917969,0.000109575062425058
942,-0.00326299667358398,0.00006759828958918
943,-0.00342845916748047,0.0000484312588714394
944,-0.00338935852050781,0.0000577524410313259
945,-0.00348043441772461,0.000112432499126996
946,-0.00374650955200195,0.000076751528866748
947,-0.00382566452026367,0.0000988583598786719
948,-0.00403785705566406,0.0000768595827577187
949,-0.00417089462280273,0.0000841262920961458
950,-0.00436973571777344,0.0000848515611695503
951,-0.0044245719909668,0.000132560729980469
952,-0.00453758239746094,0.000104210467259866
953,-0.00506687164306641,0.0000880381386020223
954,-0.00506019592285156,0.0000932945030318878
955,-0.00518608093261719,0.0000997877885432927
956,-0.00531339645385742,0.0000986926213484938
957,-0.00575590133666992,0.000122122455427626
958,-0.00592947006225586,0.000113150152084995
959,-0.00607490539550781,0.0000690805233057955
960,-0.00620460510253906,0.000087582408706046
961,-0.00618267059326172,0.000119291277347885
962,-0.00635099411010742,0.000106134568491178
963,-0.00622653961181641,0.0001143872612097
964,-0.00632572174072266,0.0000972326973035799
965,-0.00609874725341797,0.0000934041108664753
966,-0.00602579116821289,0.000104721951442751
967,-0.00594234466552734,0.0000982816792702454
968,-0.00603151321411133,0.000121753251062125
969,-0.00577783584594727,0.000155287934247344
970,-0.00603628158569336,0.000135700181380853
971,-0.00573015213012695,0.000139591991122288
972,-0.00539016723632813,0.000148129906416543
973,-0.00529766082763672,0.00012023106416388
974,-0.00536012649536133,0.000152587890625
975,-0.00511741638183594,0.000159565986902388
976,-0.00520753860473633,0.000134288722336441
977,-0.00468158721923828,0.000138978196065252
978,-0.00481081008911133,0.000155451838928032
979,-0.00478553771972656,0.00015234630056074
980,-0.00453948974609375,0.000105774047260468
981,-0.00447797775268555,0.000122509108104895
982,-0.00430107116699219,0.000155989170301124
983,-0.00386810302734375,0.000173594923452687
984,-0.00406837463378906,0.000118105547037772
985,-0.0037541389465332,0.000158464976306913
986,-0.00371408462524414,0.00016765692127972
987,-0.00352239608764648,0.000193061937906098
988,-0.00355339050292969,0.000170926002425177
989,-0.00299310684204102,0.000188035943442004
990,-0.0031275749206543,0.00022674196017019
991,-0.00308656692504883,0.000197523425741493
992,-0.00320672988891602,0.000135129290412905
993,-0.00263357162475586,0.000169013045630461
994,-0.00259113311767578,0.000223713375659929
995,-0.00243377685546875,0.000204117496281475
996,-0.00272989273071289,0.000188316269641075
997,-0.00230884552001953,0.000187803632911491
998,-0.00227594375610352,0.00021847677436846
999,-0.00183629989624023,0.000234188704907626
1000,-0.0021672248840332,0.000249724313416147
1001,-0.00164031982421875,0.000231623128094285
1002,-0.00181198120117187,0.000176648700017377
1003,-0.00181198120117187,0.000216670942943707
1004,-0.00200033187866211,0.000209843025809861
1005,-0.00144433975219727,0.000220478281969811
1006,-0.00152254104614258,0.000170830197845076
1007,-0.00161933898925781,0.000154088509255181
1008,-0.00161027908325195,0.000229310587801138
1009,-0.00167226791381836,0.000225696653180543
1010,-0.00115156173706055,0.000223721506404654
1011,-0.00158786773681641,0.000292677038716366
1012,-0.00100469589233398,0.000333535236432461
1013,-0.00148963928222656,0.000226890323966782
1014,-0.00106334686279297,0.000214485572953237
1015,-0.00134086608886719,0.000225426500143307
1016,-0.00139474868774414,0.000210176491704261
1017,-0.00147771835327148,0.00021304324349126
1018,-0.00163030624389648,0.00023388558812555
1019,-0.00141763687133789,0.00023072218119368
1020,-0.00130224227905273,0.00020628925589074
1021,-0.00136470794677734,0.000187832687440646
1022,-0.00160646438598633,0.00023200369704021
1023,-0.0015416145324707,0.000267702343136738
1024,-0.00133562088012695,0.000393293253082131
1025,-0.00133371353149414,0.000359928361372837
1026,-0.00135707855224609,0.000277576571697605
1027,-0.00109195709228516,0.000255399608478859
1028,-0.00101423263549805,0.000274658203125
1029,-0.00156307220458984,0.000398384818282754
1030,-0.00175285339355469,0.00034028938483257
1031,-0.00159597396850586,0.00038883724001532
1032,-0.00205469131469727,0.000282467964904227
1033,-0.00167131423950195,0.000323384196875262
1034,-0.00177764892578125,0.00035985760186112
1035,-0.00138092041015625,0.00042566791336206
1036,-0.00189113616943359,0.000385558153869662
1037,-0.00194931030273437,0.000458525976602683
1038,-0.00283479690551758,0.000271601355429973
1039,-0.00178194046020508,0.000327242332477862
1040,-0.0017237663269043,0.000374326584327034
1041,-0.00229549407958984,0.000447564955147388
1042,-0.00260353088378906,0.000456330918213888
1043,-0.0024113655090332,0.000420577942310832
1044,-0.00325679779052734,0.000404249932609221
1045,-0.00219488143920898,0.00041851419049566
1046,-0.00298309326171875,0.000589417020590711
1047,-0.00302648544311523,0.000616424861960576
1048,-0.00354146957397461,0.000538115750679417
1049,-0.00267457962036133,0.000439030059514532
1050,-0.00288963317871094,0.000495455606474809
1051,-0.00295114517211914,0.000471690054892103
1052,-0.00325632095336914,0.000404339915900844
1053,-0.00362348556518555,0.000511994336808329
1054,-0.00342893600463867,0.000542478922782501
1055,-0.00354146957397461,0.000559084196794472
1056,-0.00389671325683594,0.000735791719276699
1057,-0.0038294792175293,0.000640869140625
1058,-0.00443744659423828,0.000669204894746736
1059,-0.00424957275390625,0.000585602624884566
1060,-0.00518798828125,0.00044268571513029
1061,-0.00445890426635742,0.000461885649490729
1062,-0.00475883483886719,0.000700181422235465
1063,-0.00429439544677734,0.000987262519290595
1064,-0.00446796417236328,0.000941078934414328
1065,-0.0045933723449707,0.0008466050039174
1066,-0.00481367111206055,0.00084265963204807
1067,-0.0045166015625,0.000750575010342733
1068,-0.00437688827514648,0.00099457578372061
1069,-0.00286293029785156,0.000840169211467321
1070,-0.00528955459594727,0.00105536893623946
1071,-0.00244617462158203,0.000987940311049722
1072,-0.00458431243896484,0.000954574160434838
1073,-0.00465297698974609,0.00102080044360928
1074,-0.00507736206054688,0.000914573172210145
1075,-0.00333356857299805,0.000637431233158887
1076,-0.00233697891235352,0.00138355236142341
1077,-0.00393199920654297,0.00141318960013901
1078,-0.00467491149902344,0.00145759377857535
1079,-0.00396299362182617,0.0012201546390453
1080,-0.00455379486083984,0.00116315117788348
1081,-0.00465154647827148,0.00123421816795307
1082,-0.00459051132202148,0.00145942958999247
1083,-0.00635004043579102,0.00173548183692785
1084,-0.00647783279418945,0.00127614024975196
1085,-0.00331926345825195,0.00131893675134932
1086,-0.00558662414550781,0.0014630943024131
1087,-0.00389289855957031,0.00159277201546629
1088,-0.00415706634521484,0.00160768559588049
1089,-0.0083012580871582,0.00222082226315388
1090,-0.00503349304199219,0.00234762308855803
1091,-0.00540304183959961,0.00140728726808702
1092,-0.0037689208984375,0.00238076231260279
1093,-0.00653171539306641,0.00235974101833781
1094,-0.00635576248168945,0.00209823607843613
1095,-0.00852251052856445,0.00188648254384964
1096,-0.00875139236450195,0.0014801025390625
1097,-0.0072941780090332,0.00159700559503857
1098,-0.00756168365478516,0.00137331220822406
1099,-0.00707483291625977,0.00223331548339083
1100,-0.00911664962768555,0.00249988145845228
