Wavelength (nm),Absorbance (AU),Std.Dev.
190,0.243339538574219,0.000104345655502635
191,0.242149353027344,0.0000704380647934536
192,0.240358352661133,0.0000601117496845986
193,0.238348960876465,0.0000583789689975646
194,0.236384391784668,0.0000512150634082701
195,0.234274387359619,0.0000482053831333165
196,0.2322096824646,0.0000372505664092666
197,0.230112552642822,0.0000349395086321304
198,0.22772216796875,0.0000465252339082736
199,0.225137710571289,0.0000473007078843584
200,0.222312450408936,0.0000417089437748808
201,0.219274044036865,0.0000462163207872903
202,0.216188907623291,0.0000452254341875188
203,0.212894439697266,0.0000429279255968482
204,0.20924186706543,0.0000413970456894648
205,0.205134868621826,0.0000458061598149217
206,0.200362682342529,0.0000598710781042279
207,0.195102691650391,0.0000430832333916667
208,0.18919038772583,0.000050971416523892
209,0.182857990264893,0.0000535078435482236
210,0.176061630249023,0.0000452618693354961
211,0.168628692626953,0.000052656512277139
212,0.160737991333008,0.0000611579672736199
213,0.152575016021729,0.0000441042151434174
214,0.144174098968506,0.0000444508407074792
215,0.135651588439941,0.0000324100221710642
216,0.127065181732178,0.000037236830105041
217,0.118535995483398,0.0000384283122005759
218,0.110155582427979,0.0000388117327597134
219,0.102008819580078,0.000034436425544388
220,0.09417724609375,0.0000362936984235763
221,0.0866613388061523,0.0000315551290313441
222,0.0796794891357422,0.0000294067837603753
223,0.073061466217041,0.0000356298200026105
224,0.0670137405395508,0.0000310100002719814
225,0.0614523887634277,0.0000262936890126619
226,0.0563573837280273,0.000039998935826548
227,0.0518145561218262,0.0000414855178688742
228,0.0477380752563477,0.0000271593193001459
229,0.0441608428955078,0.0000337974629522385
230,0.0409007072448731,0.00003751363113239
231,0.0380191802978516,0.0000289479823277207
232,0.0355091094970703,0.0000380597010344271
233,0.0332779884338379,0.0000387200874541085
234,0.0314044952392578,0.0000361815413762931
235,0.0297427177429199,0.0000342087045075878
236,0.0283041000366211,0.0000282498350277717
237,0.0270147323608398,0.0000283888357036448
238,0.0258955955505371,0.0000385125346911244
239,0.0250349044799805,0.0000344512784351128
240,0.0242452621459961,0.000039228370287329
241,0.023500919342041,0.0000355027600310111
242,0.0228633880615234,0.0000322226921425184
243,0.0223164558410645,0.0000314495705563376
244,0.0217947959899902,0.000037296317552043
245,0.0213003158569336,0.0000307088312851662
246,0.0208954811096191,0.0000324634715592677
247,0.0205793380737305,0.0000411201208343749
248,0.0202460289001465,0.0000377214058715174
249,0.0199413299560547,0.0000344116564801573
250,0.0196547508239746,0.000023332763319834
251,0.0193767547607422,0.0000310887222460223
252,0.019172191619873,0.0000440384350845151
253,0.0188589096069336,0.0000369618009423331
254,0.0186753273010254,0.000049102652213501
255,0.0184593200683594,0.0000583380593955121
256,0.0183014869689941,0.0000348507292721241
257,0.0181679725646973,0.0000304401802039678
258,0.0179228782653809,0.0000357102962564492
259,0.0178108215332031,0.0000405563949107455
260,0.0176224708557129,0.0000387721685644862
261,0.0175108909606934,0.0000553798683748529
262,0.0174651145935059,0.0000551329754336082
263,0.0172514915466309,0.0000397251431012369
264,0.0170621871948242,0.0000361634696583529
265,0.0169453620910645,0.0000416284574226645
266,0.0167598724365234,0.0000363367435703703
267,0.0166363716125488,0.0000422485525864287
268,0.0165081024169922,0.0000356314153557805
269,0.0162811279296875,0.0000545983751763594
270,0.016143798828125,0.000055192742428246
271,0.0160222053527832,0.0000474039453464104
272,0.0158672332763672,0.0000578232643266768
273,0.0157070159912109,0.0000436546957465912
274,0.0155901908874512,0.0000322182816397339
275,0.0154409408569336,0.0000440848782560531
276,0.0152106285095215,0.0000412022900368175
277,0.0151276588439941,0.0000450768771167485
278,0.0149235725402832,0.0000419338903806825
279,0.0147266387939453,0.0000361846833624374
280,0.0145754814147949,0.0000274419680975688
281,0.0143365859985352,0.0000410017574356075
282,0.0141263008117676,0.0000406949157154893
283,0.0139212608337402,0.000029481592495847
284,0.0136995315551758,0.0000403167156688737
285,0.0135498046875,0.0000421198658906438
286,0.0133013725280762,0.000042364774366343
287,0.0131440162658691,0.0000496391833210248
288,0.0129852294921875,0.0000365683118109178
289,0.0126819610595703,0.000026714054392548
290,0.0125079154968262,0.0000375242365492101
291,0.0122666358947754,0.0000307513758418774
292,0.0120573043823242,0.00003323267646529
293,0.0118474960327148,0.0000362529541897035
294,0.0116410255432129,0.0000399797460590617
295,0.011446475982666,0.0000294246586110765
296,0.0112295150756836,0.0000298751893925876
297,0.0111160278320312,0.0000443471375146834
298,0.0109395980834961,0.0000344050483847569
299,0.0107464790344238,0.0000338210011344437
300,0.010591983795166,0.0000412946209863389
301,0.0104160308837891,0.0000429279255968482
302,0.0102448463439941,0.0000435269014591061
303,0.0100851058959961,0.0000440655328832547
304,0.0100188255310059,0.0000356346058478495
305,0.00987434387207031,0.0000406998042872789
306,0.00968503952026367,0.0000504772167122639
307,0.0095362663269043,0.0000408635812485286
308,0.0093536376953125,0.0000418470453538229
309,0.00922536849975586,0.0000285893602551641
310,0.00919580459594727,0.0000390337161841542
311,0.00904035568237305,0.0000405872181676229
312,0.00886726379394531,0.000036198818925199
313,0.00868749618530273,0.0000439466949748763
314,0.00866985321044922,0.0000541824252916505
315,0.00860357284545898,0.0000484230423249957
316,0.00845575332641602,0.0000470500808088074
317,0.0082402229309082,0.0000581516550755821
318,0.00809431076049805,0.0000556236216781484
319,0.00798559188842773,0.0000424083591917573
320,0.00783300399780273,0.0000364546607383313
321,0.00780344009399414,0.0000502537502396386
322,0.00759792327880859,0.0000314938218656015
323,0.00746631622314453,0.0000378868052634835
324,0.00742816925048828,0.0000467847484406433
325,0.00725889205932617,0.0000292454184769025
326,0.00715780258178711,0.0000372993656329203
327,0.00713491439819336,0.0000640028447554112
328,0.00692558288574219,0.0000498106569564842
329,0.00680017471313477,0.0000512239418105918
330,0.00669240951538086,0.0000407374964086073
331,0.00660133361816406,0.0000401330072810523
332,0.00650167465209961,0.00005038253380536
333,0.00641441345214844,0.0000661206551043051
334,0.00632190704345703,0.0000410412498309136
335,0.00618553161621094,0.000033069782815481
336,0.00605487823486328,0.0000371527756728485
337,0.00587654113769531,0.0000275071399541322
338,0.00587034225463867,0.0000335764132430253
339,0.00581645965576172,0.0000385671069867933
340,0.00568246841430664,0.0000635518575408944
341,0.00560951232910156,0.0000601401118661704
342,0.00549650192260742,0.0000518570001009228
343,0.00537300109863281,0.0000480329125155083
344,0.00524473190307617,0.0000452040619989877
345,0.00521278381347656,0.0000546504063460152
346,0.00514936447143555,0.0000538920925857785
347,0.00513410568237305,0.0000380178591108674
348,0.00494623184204102,0.0000429193176973184
349,0.00488424301147461,0.0000549450086513553
350,0.00471591949462891,0.0000469739058769744
351,0.00473833084106445,0.0000438625393104743
352,0.00462245941162109,0.0000423976347764275
353,0.00457000732421875,0.000046664308520751
354,0.00447320938110352,0.0000546389637398957
355,0.00430488586425781,0.0000562263602179858
356,0.00417995452880859,0.0000442971197604889
357,0.0042271614074707,0.0000503701216737989
358,0.00416088104248047,0.0000346068489172066
359,0.00397968292236328,0.0000339769479742391
360,0.00389194488525391,0.0000474183327043257
361,0.00382614135742187,0.0000632290387031018
362,0.00371599197387695,0.0000617738811712828
363,0.00365638732910156,0.0000587090925329625
364,0.00360870361328125,0.0000632613947164962
365,0.00347995758056641,0.000053972195091
366,0.0034480094909668,0.000052191346330689
367,0.00343656539916992,0.0000586180090356037
368,0.00329685211181641,0.0000639121903813167
369,0.00324106216430664,0.0000635035393317661
370,0.0031886100769043,0.0000737095243148131
371,0.00327110290527344,0.0000681510239708759
372,0.00313425064086914,0.0000661326897014674
373,0.00303459167480469,0.0000870381302557541
374,0.00308752059936523,0.0000610109370578846
375,0.00303363800048828,0.0000605329700791677
376,0.00297164916992187,0.0000582376118135778
377,0.0029606819152832,0.0000830901575468376
378,0.00284576416015625,0.0000673050201385863
379,0.00275468826293945,0.0000631120594372782
380,0.00270938873291016,0.0000758036115617281
381,0.00276374816894531,0.0000612860974826
382,0.00290822982788086,0.0000588183998312305
383,0.00281620025634766,0.0000963140239567062
384,0.00269603729248047,0.0000776381100748858
385,0.00265741348266602,0.0000793672495710876
386,0.0024113655090332,0.0000726343678385743
387,0.0025482177734375,0.000123477808453671
388,0.00246572494506836,0.0000898961354709053
389,0.00235366821289062,0.0000716922724803326
390,0.00240659713745117,0.0000694645531206836
391,0.00232124328613281,0.0000456893610618962
392,0.00220775604248047,0.000051111738808272
393,0.00201559066772461,0.0000647164824574415
394,0.00214672088623047,0.0001134932540456
395,0.00209999084472656,0.0000891264647861944
396,0.00215339660644531,0.0000770339247045931
397,0.00220966339111328,0.0000578861456223068
398,0.00200986862182617,0.0000592104273051563
399,0.0017247200012207,0.0000626328829164208
400,0.0019373893737793,0.0000803424624476865
401,0.00189971923828125,0.0000884632531699189
402,0.00189065933227539,0.0000902570996862857
403,0.00182628631591797,0.0000749514602871481
404,0.00178098678588867,0.0000636680287569981
405,0.00179338455200195,0.0000633332377862845
406,0.00156307220458984,0.0000849118322043806
407,0.00171613693237305,0.000071053536784185
408,0.00185585021972656,0.0000656080105613318
409,0.00154685974121094,0.0000684921431387919
410,0.00150203704833984,0.0000924228015105111
411,0.00157022476196289,0.0000614602218523365
412,0.00156497955322266,0.0000496403284398485
413,0.00160694122314453,0.0000670681252257245
414,0.00142765045166016,0.000055639970147344
415,0.00130796432495117,0.0000607354659449755
416,0.00133609771728516,0.0000860846259795895
417,0.00132513046264648,0.0000614528223553373
418,0.00134611129760742,0.0000706620542634686
419,0.00135231018066406,0.0000763922296698165
420,0.00147104263305664,0.0000778720484132208
421,0.00141286849975586,0.0000551051307551698
422,0.00103139877319336,0.0000432083932710345
423,0.00100994110107422,0.0000640862754381241
424,0.00107812881469727,0.0000817633218832375
425,0.00111675262451172,0.0000653423513310702
426,0.00108623504638672,0.0000742075673065735
427,0.00125598907470703,0.0000622724500456207
428,0.00100946426391602,0.000065611476108732
429,0.00113964080810547,0.0000749590439343589
430,0.000912189483642578,0.0000665525296110836
431,0.000861644744873047,0.0000515822328911487
432,0.000973701477050781,0.0000450793991117216
433,0.00109195709228516,0.0000462064801993395
434,0.000780582427978516,0.0000647358031702258
435,0.000741004943847656,0.0000544388508854392
436,0.000827789306640625,0.0000666361801706166
437,0.000842094421386719,0.0000661017391676845
438,0.00104761123657227,0.0000677830351908307
439,0.000765800476074219,0.000046745852306351
440,0.000786304473876953,0.0000742994311289544
441,0.000878810882568359,0.0000720781597309643
442,0.000592708587646484,0.0000476550970025978
443,0.000782489776611328,0.000039155851331745
444,0.000580310821533203,0.0000470838967755592
445,0.000687599182128906,0.0000512050733655722
446,0.000642776489257813,0.0000563596508678146
447,0.000470161437988281,0.0000482807924608121
448,0.000522613525390625,0.0000519905592744408
449,0.000611305236816406,0.0000659984658947918
450,0.000548362731933594,0.0000624019355921016
451,0.000532150268554688,0.0000570981387204765
452,0.000493049621582031,0.0000581008026835081
453,0.000468730926513672,0.0000466777060804703
454,0.000583171844482422,0.0000620511548639966
455,0.000597476959228516,0.0000672475652413561
456,0.000579833984375,0.0000797145664707023
457,0.000469684600830078,0.0000658311647622006
458,0.000576972961425781,0.0000518602884679624
459,0.000327587127685547,0.0000554680708990325
460,0.0003509521484375,0.0000476133303918844
461,0.000369548797607422,0.0000599744767269729
462,0.000370502471923828,0.0000551051307551698
463,0.000559329986572266,0.0000384889118959151
464,0.000287055969238281,0.0000422969611415077
465,0.0001983642578125,0.0000599033500385837
466,0.000131607055664062,0.0000869780255544308
467,0.000345706939697266,0.0000711510708545104
468,0.000235557556152344,0.0000565449257147158
469,0.000133514404296875,0.0000734174390050297
470,0.000170707702636719,0.0000596970795103035
471,0.000250816345214844,0.000044639700845598
472,0.000217437744140625,0.0000514873740056011
473,0.000370502471923828,0.0000602920943088617
474,0.000227451324462891,0.0000505930741436235
475,0.000288963317871094,0.0000503565776774062
476,0.0000920295715332031,0.0000569096708215168
477,0.000131130218505859,0.0000583555955938528
478,0.000136852264404297,0.0000874577065895872
479,0.000230789184570312,0.0000856317758372687
480,0.0000810623168945313,0.0000784277544501327
481,-0.0000176429748535156,0.0000892997734887667
482,-0.0000538825988769531,0.0000561970343084826
483,0.0000872611999511719,0.0000582932206993155
484,-0.0000395774841308594,0.0000676957637415987
485,0.00223112106323242,0.0000759743912433781
486,-0.00111961364746094,0.0000649427001732798
487,-0.0000920295715332031,0.0000674029184014403
488,-0.000185966491699219,0.0000696133259133738
489,0.0000977516174316406,0.000082058950750368
490,-0.0000162124633789062,0.000081051096420134
491,0.000087738037109375,0.000054022724951187
492,0.0000753402709960938,0.0000584986111139262
493,-0.0000586509704589844,0.0000558439221898109
494,-0.000123500823974609,0.0000556154456414044
495,-0.0000391006469726562,0.0000510338296168777
496,-0.0000810623168945313,0.0000789003413171341
497,-0.000186920166015625,0.0000783218640596798
498,-0.00000905990600585938,0.0000625566009950466
499,0.0000290870666503906,0.0000478372486301042
500,-0.000217914581298828,0.0000753644107823576
501,0.0000209808349609375,0.0000571826969156678
502,-0.000123977661132812,0.0000595464422253713
503,-0.0000615119934082031,0.0000686248028469315
504,-0.000109672546386719,0.0000536764895310686
505,-0.0000376701354980469,0.0000629063704835529
506,-0.0000662803649902344,0.0000583146695946138
507,-0.000185489654541016,0.0000671595979720501
508,-0.000163078308105469,0.000069963565410447
509,-0.0000901222229003906,0.0000936690738077592
510,-0.0000901222229003906,0.0000698594916222093
511,-0.000203609466552734,0.0000413331459468256
512,-0.0000743865966796875,0.0000404525443225138
513,-0.000163555145263672,0.0000547190117333473
514,-0.000198841094970703,0.0000734561412813343
515,-0.000141620635986328,0.0000699651903350326
516,-0.00012969970703125,0.000050497482809501
517,-0.000265121459960937,0.0000739651134308574
518,-0.000267505645751953,0.0000453985537330781
519,-0.000225543975830078,0.0000335077783408372
520,-0.000185012817382812,0.0000465557682909713
521,-0.000220298767089844,0.0000598026800490296
522,-0.000295639038085937,0.0000579126531910376
523,-0.000231266021728516,0.0000433830104820004
524,-0.000312328338623047,0.0000632092574302884
525,-0.000313758850097656,0.0000724855219484706
526,-0.000273704528808594,0.0000601854635562952
527,-0.000249862670898437,0.0000596303884225064
528,-0.000180721282958984,0.0000731257416993081
529,-0.000355720520019531,0.0000631138607604541
530,-0.000227928161621094,0.00005046595425274
531,-0.000316143035888672,0.0000509513389360192
532,-0.000190258026123047,0.0000671325079299165
533,-0.000211238861083984,0.0000639921862006027
534,-0.000157356262207031,0.0000464775602151019
535,-0.000336170196533203,0.0000502673219418007
536,-0.000419139862060547,0.0000427188613976002
537,-0.000265121459960937,0.0000357897974373906
538,-0.000308990478515625,0.0000441274082231875
539,-0.000307559967041016,0.0000506996982326891
540,-0.000246524810791016,0.000046069725128601
541,-0.000398159027099609,0.0000449303591953451
542,-0.0002899169921875,0.0000528837991066428
543,-0.00042724609375,0.000051833975690419
544,-0.000280380249023437,0.0000590739466321891
545,-0.0003509521484375,0.0000613898906211077
546,-0.000269412994384766,0.0000441866241189688
547,-0.000307559967041016,0.000056459412349726
548,-0.000386238098144531,0.0000494797539437597
549,-0.000477313995361328,0.0000452593575083438
550,-0.000356674194335937,0.000040483446649153
551,-0.000311851501464844,0.0000484077793243808
552,-0.000293731689453125,0.000049537161729565
553,-0.000376701354980469,0.0000397187034486777
554,-0.000362873077392578,0.0000360509074619976
555,-0.000263690948486328,0.0000427148692915502
556,-0.000386714935302734,0.0000515921499026373
557,-0.000375747680664062,0.0000553870529011978
558,-0.000335216522216797,0.0000475284910924859
559,-0.000314712524414062,0.0000435543175152922
560,-0.000339508056640625,0.0000436403701349165
561,-0.000398159027099609,0.0000384704464941596
562,-0.000308513641357422,0.0000429914382669291
563,-0.000378608703613281,0.0000390831978173183
564,-0.000324726104736328,0.0000357476838327999
565,-0.000477790832519531,0.0000429371937125913
566,-0.000354766845703125,0.000040607520704091
567,-0.000297069549560547,0.0000518032605577945
568,-0.000334262847900391,0.0000601665711731332
569,-0.000319957733154297,0.0000562688051281259
570,-0.000330924987792969,0.0000545504626686456
571,-0.000330924987792969,0.0000514133510273868
572,-0.000590801239013672,0.0000459078054113167
573,-0.000277996063232422,0.0000517571536817321
574,-0.000435829162597656,0.0000399406272723616
575,-0.000493049621582031,0.0000408287901059051
576,-0.000313282012939453,0.0000383683575574614
577,-0.000364303588867187,0.0000296244079061846
578,-0.0006561279296875,0.0000409386292111993
579,-0.000482082366943359,0.0000352327487017735
580,-0.000273704528808594,0.0000461375373150707
581,-0.000271320343017578,0.0000451562522955006
582,-0.000715255737304688,0.0000459127579767781
583,-0.000650405883789063,0.0000526543532057612
584,-0.000248908996582031,0.0000495417514786465
585,-0.000382423400878906,0.0000227717827268249
586,-0.000615596771240234,0.000025421503280265
587,-0.00026702880859375,0.0000405521899241357
588,-0.000584125518798828,0.0000522740550510171
589,-0.000547885894775391,0.0000483760638590974
590,-0.000455856323242188,0.000044350982697787
591,-0.000534534454345703,0.0000505289916934036
592,-0.000193595886230469,0.0000491512492372711
593,-0.000460624694824219,0.0000415587588682192
594,-0.000470638275146484,0.000056251628903577
595,-0.000463485717773438,0.0000448683242652807
596,-0.000583648681640625,0.0000360745510214519
597,-0.000405311584472656,0.0000473943513480635
598,-0.000457286834716797,0.000044912643672964
599,-0.000473499298095703,0.000037660325861522
600,-0.000510692596435547,0.0000293240314216322
601,-0.000522613525390625,0.0000369164051227618
602,-0.000531673431396484,0.000049091074402816
603,-0.000565528869628906,0.0000467616577629318
604,-0.000616073608398438,0.0000489414750897102
605,-0.000419139862060547,0.0000399021824251661
606,-0.000688552856445313,0.0000356935785110892
607,-0.000561714172363281,0.0000349240495718403
608,-0.000638008117675781,0.0000376263496787462
609,-0.000554561614990234,0.0000421245890968427
610,-0.000504970550537109,0.0000469618032550032
611,-0.000674247741699219,0.0000416448401298799
612,-0.000597953796386719,0.0000365364317979632
613,-0.000557422637939453,0.000030608711662921
614,-0.000682830810546875,0.0000419806307522945
615,-0.000695705413818359,0.000044945538371182
616,-0.000713348388671875,0.0000398907842438509
617,-0.000597476959228516,0.0000395889725154644
618,-0.000682353973388672,0.000041994845757028
619,-0.000535964965820313,0.0000405746114836202
620,-0.000595569610595703,0.0000451436623790947
