Wavelength (nm),Absorbance (AU),Std.Dev.
190,0.243339538574219,0.000104345655502635
191,0.242149353027344,0.0000704380647934536
192,0.240358352661133,0.0000601117496845986
193,0.238348960876465,0.0000583789689975646
194,0.236384391784668,0.0000512150634082701
195,0.234274387359619,0.0000482053831333165
196,0.2322096824646,0.0000372505664092666
197,0.230112552642822,0.0000349395086321304
198,0.22772216796875,0.0000465252339082736
199,0.225137710571289,0.0000473007078843584
200,0.222312450408936,0.0000417089437748808
201,0.219274044036865,0.0000462163207872903
202,0.216188907623291,0.0000452254341875188
203,0.212894439697266,0.0000429279255968482
204,0.20924186706543,0.0000413970456894648
205,0.205134868621826,0.0000458061598149217
206,0.200362682342529,0.0000598710781042279
207,0.195102691650391,0.0000430832333916667
208,0.18919038772583,0.000050971416523892
209,0.182857990264893,0.0000535078435482236
210,0.176061630249023,0.0000452618693354961
211,0.168628692626953,0.000052656512277139
212,0.160737991333008,0.0000611579672736199
213,0.152575016021729,0.0000441042151434174
214,0.144174098968506,0.0000444508407074792
215,0.135651588439941,0.0000324100221710642
216,0.127065181732178,0.000037236830105041
217,0.118535995483398,0.0000384283122005759
218,0.110155582427979,0.0000388117327597134
219,0.102008819580078,0.000034436425544388
220,0.09417724609375,0.0000362936984235763
221,0.0866613388061523,0.0000315551290313441
222,0.0796794891357422,0.0000294067837603753
223,0.073061466217041,0.0000356298200026105
224,0.0670137405395508,0.0000310100002719814
225,0.0614523887634277,0.0000262936890126619
226,0.0563573837280273,0.000039998935826548
227,0.0518145561218262,0.0000414855178688742
228,0.0477380752563477,0.0000271593193001459
229,0.0441608428955078,0.0000337974629522385
230,0.0409007072448731,0.00003751363113239
231,0.0380191802978516,0.0000289479823277207
232,0.0355091094970703,0.0000380597010344271
233,0.0332779884338379,0.0000387200874541085
234,0.0314044952392578,0.0000361815413762931
235,0.0297427177429199,0.0000342087045075878
236,0.0283041000366211,0.0000282498350277717
237,0.0270147323608398,0.0000283888357036448
238,0.0258955955505371,0.0000385125346911244
239,0.0250349044799805,0.0000344512784351128
240,0.0242452621459961,0.000039228370287329
241,0.023500919342041,0.0000355027600310111
242,0.0228633880615234,0.0000322226921425184
243,0.0223164558410645,0.0000314495705563376
244,0.0217947959899902,0.000037296317552043
245,0.0213003158569336,0.0000307088312851662
246,0.0208954811096191,0.0000324634715592677
247,0.0205793380737305,0.0000411201208343749
248,0.0202460289001465,0.0000377214058715174
249,0.0199413299560547,0.0000344116564801573
250,0.0196547508239746,0.000023332763319834
251,0.0193767547607422,0.0000310887222460223
252,0.019172191619873,0.0000440384350845151
253,0.0188589096069336,0.0000369618009423331
254,0.0186753273010254,0.000049102652213501
255,0.0184593200683594,0.0000583380593955121
256,0.0183014869689941,0.0000348507292721241
257,0.0181679725646973,0.0000304401802039678
258,0.0179228782653809,0.0000357102962564492
259,0.0178108215332031,0.0000405563949107455
260,0.0176224708557129,0.0000387721685644862
261,0.0175108909606934,0.0000553798683748529
262,0.0174651145935059,0.0000551329754336082
263,0.0172514915466309,0.0000397251431012369
264,0.0170621871948242,0.0000361634696583529
265,0.0169453620910645,0.0000416284574226645
266,0.0167598724365234,0.0000363367435703703
267,0.0166363716125488,0.0000422485525864287
268,0.0165081024169922,0.0000356314153557805
269,0.0162811279296875,0.0000545983751763594
270,0.016143798828125,0.000055192742428246
271,0.0160222053527832,0.0000474039453464104
272,0.0158672332763672,0.0000578232643266768
273,0.0157070159912109,0.0000436546957465912
274,0.0155901908874512,0.0000322182816397339
275,0.0154409408569336,0.0000440848782560531
276,0.0152106285095215,0.0000412022900368175
277,0.0151276588439941,0.0000450768771167485
278,0.0149235725402832,0.0000419338903806825
279,0.0147266387939453,0.0000361846833624374
280,0.0145754814147949,0.0000274419680975688
281,0.0143365859985352,0.0000410017574356075
282,0.0141263008117676,0.0000406949157154893
283,0.0139212608337402,0.000029481592495847
284,0.0136995315551758,0.0000403167156688737
285,0.0135498046875,0.0000421198658906438
286,0.0133013725280762,0.000042364774366343
287,0.0131440162658691,0.0000496391833210248
288,0.0129852294921875,0.0000365683118109178
289,0.0126819610595703,0.000026714054392548
290,0.0125079154968262,0.0000375242365492101
291,0.0122666358947754,0.0000307513758418774
292,0.0120573043823242,0.00003323267646529
293,0.0118474960327148,0.0000362529541897035
294,0.0116410255432129,0.0000399797460590617
295,0.011446475982666,0.0000294246586110765
296,0.0112295150756836,0.0000298751893925876
297,0.0111160278320312,0.0000443471375146834
298,0.0109395980834961,0.0000344050483847569
299,0.0107464790344238,0.0000338210011344437
300,0.010591983795166,0.0000412946209863389
301,0.0104160308837891,0.0000429279255968482
302,0.0102448463439941,0.0000435269014591061
303,0.0100851058959961,0.0000440655328832547
304,0.0100188255310059,0.0000356346058478495
305,0.00987434387207031,0.0000406998042872789
306,0.00968503952026367,0.0000504772167122639
307,0.0095362663269043,0.0000408635812485286
308,0.0093536376953125,0.0000418470453538229
309,0.00922536849975586,0.0000285893602551641
310,0.00919580459594727,0.0000390337161841542
311,0.00904035568237305,0.0000405872181676229
312,0.00886726379394531,0.000036198818925199
313,0.00868749618530273,0.0000439466949748763
314,0.00866985321044922,0.0000541824252916505
315,0.00860357284545898,0.0000484230423249957
316,0.00845575332641602,0.0000470500808088074
317,0.0082402229309082,0.0000581516550755821
318,0.00809431076049805,0.0000556236216781484
319,0.00798559188842773,0.0000424083591917573
320,0.00783300399780273,0.0000364546607383313
321,0.00780344009399414,0.0000502537502396386
322,0.00759792327880859,0.0000314938218656015
323,0.00746631622314453,0.0000378868052634835
324,0.00742816925048828,0.0000467847484406433
325,0.00725889205932617,0.0000292454184769025
326,0.00715780258178711,0.0000372993656329203
327,0.00713491439819336,0.0000640028447554112
328,0.00692558288574219,0.0000498106569564842
329,0.00680017471313477,0.0000512239418105918
330,0.00669240951538086,0.0000407374964086073
331,0.00660133361816406,0.0000401330072810523
332,0.00650167465209961,0.00005038253380536
333,0.00641441345214844,0.0000661206551043051
334,0.00632190704345703,0.0000410412498309136
335,0.00618553161621094,0.000033069782815481
336,0.00605487823486328,0.0000371527756728485
337,0.00587654113769531,0.0000275071399541322
338,0.00587034225463867,0.0000335764132430253
339,0.00581645965576172,0.0000385671069867933
340,0.00568246841430664,0.0000635518575408944
341,0.00560951232910156,0.0000601401118661704
342,0.00549650192260742,0.0000518570001009228
343,0.00537300109863281,0.0000480329125155083
344,0.00524473190307617,0.0000452040619989877
345,0.00521278381347656,0.0000546504063460152
346,0.00514936447143555,0.0000538920925857785
347,0.00513410568237305,0.0000380178591108674
348,0.00494623184204102,0.0000429193176973184
349,0.00488424301147461,0.0000549450086513553
350,0.00471591949462891,0.0000469739058769744
351,0.00473833084106445,0.0000438625393104743
352,0.00462245941162109,0.0000423976347764275
353,0.00457000732421875,0.000046664308520751
354,0.00447320938110352,0.0000546389637398957
355,0.00430488586425781,0.0000562263602179858
356,0.00417995452880859,0.0000442971197604889
357,0.0042271614074707,0.0000503701216737989
358,0.00416088104248047,0.0000346068489172066
359,0.00397968292236328,0.0000339769479742391
360,0.00389194488525391,0.0000474183327043257
361,0.00382614135742187,0.0000632290387031018
362,0.00371599197387695,0.0000617738811712828
363,0.00365638732910156,0.0000587090925329625
364,0.00360870361328125,0.0000632613947164962
365,0.00347995758056641,0.000053972195091
366,0.0034480094909668,0.000052191346330689
367,0.00343656539916992,0.0000586180090356037
368,0.00329685211181641,0.0000639121903813167
369,0.00324106216430664,0.0000635035393317661
370,0.0031886100769043,0.0000737095243148131
371,0.00327110290527344,0.0000681510239708759
372,0.00313425064086914,0.0000661326897014674
373,0.00303459167480469,0.0000870381302557541
374,0.00308752059936523,0.0000610109370578846
375,0.00303363800048828,0.0000605329700791677
376,0.00297164916992187,0.0000582376118135778
377,0.0029606819152832,0.0000830901575468376
378,0.00284576416015625,0.0000673050201385863
379,0.00275468826293945,0.0000631120594372782
380,0.00270938873291016,0.0000758036115617281
381,0.00276374816894531,0.0000612860974826
382,0.00290822982788086,0.0000588183998312305
383,0.00281620025634766,0.0000963140239567062
384,0.00269603729248047,0.0000776381100748858
385,0.00265741348266602,0.0000793672495710876
386,0.0024113655090332,0.0000726343678385743
387,0.0025482177734375,0.000123477808453671
388,0.00246572494506836,0.0000898961354709053
389,0.00235366821289062,0.0000716922724803326
390,0.00240659713745117,0.0000694645531206836
391,0.00232124328613281,0.0000456893610618962
392,0.00220775604248047,0.000051111738808272
393,0.00201559066772461,0.0000647164824574415
394,0.00214672088623047,0.0001134932540456
395,0.00209999084472656,0.0000891264647861944
396,0.00215339660644531,0.0000770339247045931
397,0.00220966339111328,0.0000578861456223068
398,0.00200986862182617,0.0000592104273051563
399,0.0017247200012207,0.0000626328829164208
400,0.0019373893737793,0.0000803424624476865
401,0.00189971923828125,0.0000884632531699189
402,0.00189065933227539,0.0000902570996862857
403,0.00182628631591797,0.0000749514602871481
404,0.00178098678588867,0.0000636680287569981
405,0.00179338455200195,0.0000633332377862845
406,0.00156307220458984,0.0000849118322043806
407,0.00171613693237305,0.000071053536784185
408,0.00185585021972656,0.0000656080105613318
409,0.00154685974121094,0.0000684921431387919
410,0.00150203704833984,0.0000924228015105111
411,0.00157022476196289,0.0000614602218523365
412,0.00156497955322266,0.0000496403284398485
413,0.00160694122314453,0.0000670681252257245
414,0.00142765045166016,0.000055639970147344
415,0.00130796432495117,0.0000607354659449755
416,0.00133609771728516,0.0000860846259795895
417,0.00132513046264648,0.0000614528223553373
418,0.00134611129760742,0.0000706620542634686
419,0.00135231018066406,0.0000763922296698165
420,0.00147104263305664,0.0000778720484132208
421,0.00141286849975586,0.0000551051307551698
422,0.00103139877319336,0.0000432083932710345
423,0.00100994110107422,0.0000640862754381241
424,0.00107812881469727,0.0000817633218832375
425,0.00111675262451172,0.0000653423513310702
426,0.00108623504638672,0.0000742075673065735
427,0.00125598907470703,0.0000622724500456207
428,0.00100946426391602,0.000065611476108732
429,0.00113964080810547,0.0000749590439343589
430,0.000912189483642578,0.0000665525296110836
431,0.000861644744873047,0.0000515822328911487
432,0.000973701477050781,0.0000450793991117216
433,0.00109195709228516,0.0000462064801993395
434,0.000780582427978516,0.0000647358031702258
435,0.000741004943847656,0.0000544388508854392
436,0.000827789306640625,0.0000666361801706166
437,0.000842094421386719,0.0000661017391676845
438,0.00104761123657227,0.0000677830351908307
439,0.000765800476074219,0.000046745852306351
440,0.000786304473876953,0.0000742994311289544
441,0.000878810882568359,0.0000720781597309643
442,0.000592708587646484,0.0000476550970025978
443,0.000782489776611328,0.000039155851331745
444,0.000580310821533203,0.0000470838967755592
445,0.000687599182128906,0.0000512050733655722
446,0.000642776489257813,0.0000563596508678146
447,0.000470161437988281,0.0000482807924608121
448,0.000522613525390625,0.0000519905592744408
449,0.000611305236816406,0.0000659984658947918
450,0.000548362731933594,0.0000624019355921016
451,0.000532150268554688,0.0000570981387204765
452,0.000493049621582031,0.0000581008026835081
453,0.000468730926513672,0.0000466777060804703
454,0.000583171844482422,0.0000620511548639966
455,0.000597476959228516,0.0000672475652413561
456,0.000579833984375,0.0000797145664707023
457,0.000469684600830078,0.0000658311647622006
458,0.000576972961425781,0.0000518602884679624
459,0.000327587127685547,0.0000554680708990325
460,0.0003509521484375,0.0000476133303918844
461,0.000369548797607422,0.0000599744767269729
462,0.000370502471923828,0.0000551051307551698
463,0.000559329986572266,0.0000384889118959151
464,0.000287055969238281,0.0000422969611415077
465,0.0001983642578125,0.0000599033500385837
466,0.000131607055664062,0.0000869780255544308
467,0.000345706939697266,0.0000711510708545104
468,0.000235557556152344,0.0000565449257147158
469,0.000133514404296875,0.0000734174390050297
470,0.000170707702636719,0.0000596970795103035
471,0.000250816345214844,0.000044639700845598
472,0.000217437744140625,0.0000514873740056011
473,0.000370502471923828,0.0000602920943088617
474,0.000227451324462891,0.0000505930741436235
475,0.000288963317871094,0.0000503565776774062
476,0.0000920295715332031,0.0000569096708215168
477,0.000131130218505859,0.0000583555955938528
478,0.000136852264404297,0.0000874577065895872
479,0.000230789184570312,0.0000856317758372687
480,0.0000810623168945313,0.0000784277544501327
481,-0.0000176429748535156,0.0000892997734887667
482,-0.0000538825988769531,0.0000561970343084826
483,0.0000872611999511719,0.0000582932206993155
484,-0.0000395774841308594,0.0000676957637415987
485,0.00223112106323242,0.0000759743912433781
486,-0.00111961364746094,0.0000649427001732798
487,-0.0000920295715332031,0.0000674029184014403
488,-0.000185966491699219,0.0000696133259133738
489,0.0000977516174316406,0.000082058950750368
490,-0.0000162124633789062,0.000081051096420134
491,0.000087738037109375,0.000054022724951187
492,0.0000753402709960938,0.0000584986111139262
493,-0.0000586509704589844,0.0000558439221898109
494,-0.000123500823974609,0.0000556154456414044
495,-0.0000391006469726562,0.0000510338296168777
496,-0.0000810623168945313,0.0000789003413171341
497,-0.000186920166015625,0.0000783218640596798
498,-0.00000905990600585938,0.0000625566009950466
499,0.0000290870666503906,0.0000478372486301042
500,-0.000217914581298828,0.0000753644107823576
501,0.0000209808349609375,0.0000571826969156678
502,-0.000123977661132812,0.0000595464422253713
503,-0.0000615119934082031,0.0000686248028469315
504,-0.000109672546386719,0.0000536764895310686
505,-0.0000376701354980469,0.0000629063704835529
506,-0.0000662803649902344,0.0000583146695946138
507,-0.000185489654541016,0.0000671595979720501
508,-0.000163078308105469,0.000069963565410447
509,-0.0000901222229003906,0.0000936690738077592
510,-0.0000901222229003906,0.0000698594916222093
511,-0.000203609466552734,0.0000413331459468256
512,-0.0000743865966796875,0.0000404525443225138
513,-0.000163555145263672,0.0000547190117333473
514,-0.000198841094970703,0.0000734561412813343
515,-0.000141620635986328,0.0000699651903350326
516,-0.00012969970703125,0.000050497482809501
517,-0.000265121459960937,0.0000739651134308574
518,-0.000267505645751953,0.0000453985537330781
519,-0.000225543975830078,0.0000335077783408372
520,-0.000185012817382812,0.0000465557682909713
521,-0.000220298767089844,0.0000598026800490296
522,-0.000295639038085937,0.0000579126531910376
523,-0.000231266021728516,0.0000433830104820004
524,-0.000312328338623047,0.0000632092574302884
525,-0.000313758850097656,0.0000724855219484706
526,-0.000273704528808594,0.0000601854635562952
527,-0.000249862670898437,0.0000596303884225064
528,-0.000180721282958984,0.0000731257416993081
529,-0.000355720520019531,0.0000631138607604541
530,-0.000227928161621094,0.00005046595425274
531,-0.000316143035888672,0.0000509513389360192
532,-0.000190258026123047,0.0000671325079299165
533,-0.000211238861083984,0.0000639921862006027
534,-0.000157356262207031,0.0000464775602151019
535,-0.000336170196533203,0.0000502673219418007
536,-0.000419139862060547,0.0000427188613976002
537,-0.000265121459960937,0.0000357897974373906
538,-0.000308990478515625,0.0000441274082231875
539,-0.000307559967041016,0.0000506996982326891
540,-0.000246524810791016,0.000046069725128601
541,-0.000398159027099609,0.0000449303591953451
542,-0.0002899169921875,0.0000528837991066428
543,-0.00042724609375,0.000051833975690419
544,-0.000280380249023437,0.0000590739466321891
545,-0.0003509521484375,0.0000613898906211077
546,-0.000269412994384766,0.0000441866241189688
547,-0.000307559967041016,0.000056459412349726
548,-0.000386238098144531,0.0000494797539437597
549,-0.000477313995361328,0.0000452593575083438
550,-0.000356674194335937,0.000040483446649153
551,-0.000311851501464844,0.0000484077793243808
552,-0.000293731689453125,0.000049537161729565
553,-0.000376701354980469,0.0000397187034486777
554,-0.000362873077392578,0.0000360509074619976
555,-0.000263690948486328,0.0000427148692915502
556,-0.000386714935302734,0.0000515921499026373
557,-0.000375747680664062,0.0000553870529011978
558,-0.000335216522216797,0.0000475284910924859
559,-0.000314712524414062,0.0000435543175152922
560,-0.000339508056640625,0.0000436403701349165
561,-0.000398159027099609,0.0000384704464941596
562,-0.000308513641357422,0.0000429914382669291
563,-0.000378608703613281,0.0000390831978173183
564,-0.000324726104736328,0.0000357476838327999
565,-0.000477790832519531,0.0000429371937125913
566,-0.000354766845703125,0.000040607520704091
567,-0.000297069549560547,0.0000518032605577945
568,-0.000334262847900391,0.0000601665711731332
569,-0.000319957733154297,0.0000562688051281259
570,-0.000330924987792969,0.0000545504626686456
571,-0.000330924987792969,0.0000514133510273868
572,-0.000590801239013672,0.0000459078054113167
573,-0.000277996063232422,0.0000517571536817321
574,-0.000435829162597656,0.0000399406272723616
575,-0.000493049621582031,0.0000408287901059051
576,-0.000313282012939453,0.0000383683575574614
577,-0.000364303588867187,0.0000296244079061846
578,-0.0006561279296875,0.0000409386292111993
579,-0.000482082366943359,0.0000352327487017735
580,-0.000273704528808594,0.0000461375373150707
581,-0.000271320343017578,0.0000451562522955006
582,-0.000715255737304688,0.0000459127579767781
583,-0.000650405883789063,0.0000526543532057612
584,-0.000248908996582031,0.0000495417514786465
585,-0.000382423400878906,0.0000227717827268249
586,-0.000615596771240234,0.000025421503280265
587,-0.00026702880859375,0.0000405521899241357
588,-0.000584125518798828,0.0000522740550510171
589,-0.000547885894775391,0.0000483760638590974
590,-0.000455856323242188,0.000044350982697787
591,-0.000534534454345703,0.0000505289916934036
592,-0.000193595886230469,0.0000491512492372711
593,-0.000460624694824219,0.0000415587588682192
594,-0.000470638275146484,0.000056251628903577
595,-0.000463485717773438,0.0000448683242652807
596,-0.000583648681640625,0.0000360745510214519
597,-0.000405311584472656,0.0000473943513480635
598,-0.000457286834716797,0.000044912643672964
599,-0.000473499298095703,0.000037660325861522
600,-0.000510692596435547,0.0000293240314216322
601,-0.000522613525390625,0.0000369164051227618
602,-0.000531673431396484,0.000049091074402816
603,-0.000565528869628906,0.0000467616577629318
604,-0.000616073608398438,0.0000489414750897102
605,-0.000419139862060547,0.0000399021824251661
606,-0.000688552856445313,0.0000356935785110892
607,-0.000561714172363281,0.0000349240495718403
608,-0.000638008117675781,0.0000376263496787462
609,-0.000554561614990234,0.0000421245890968427
610,-0.000504970550537109,0.0000469618032550032
611,-0.000674247741699219,0.0000416448401298799
612,-0.000597953796386719,0.0000365364317979632
613,-0.000557422637939453,0.000030608711662921
614,-0.000682830810546875,0.0000419806307522945
615,-0.000695705413818359,0.000044945538371182
616,-0.000713348388671875,0.0000398907842438509
617,-0.000597476959228516,0.0000395889725154644
618,-0.000682353973388672,0.000041994845757028
619,-0.000535964965820313,0.0000405746114836202
620,-0.000595569610595703,0.0000451436623790947
621,-0.000697135925292969,0.0000524260716510191
622,-0.000511646270751953,0.0000400138548386978
623,-0.000661849975585938,0.0000376044376503668
624,-0.000657558441162109,0.0000366071523017504
625,-0.000752449035644531,0.0000401754760837086
626,-0.000759601593017578,0.0000440771411258114
627,-0.000561237335205078,0.0000347232740025563
628,-0.000674247741699219,0.0000420361096999601
629,-0.000612258911132813,0.0000406991059558308
630,-0.000724315643310547,0.0000402072982479721
631,-0.000660419464111328,0.0000369364169361114
632,-0.000665664672851563,0.0000372169798261668
633,-0.000636577606201172,0.0000495612531703269
634,-0.000667572021484375,0.0000415512353734437
635,-0.000635623931884766,0.0000381097015455861
636,-0.000668048858642578,0.0000361210048740636
637,-0.000742912292480469,0.0000403244694935008
638,-0.000708103179931641,0.0000520670369073338
639,-0.000772953033447266,0.0000598026800490296
640,-0.000644683837890625,0.0000491142272949219
641,-0.000632762908935547,0.000049890476296354
642,-0.000660419464111328,0.0000486595907219543
643,-0.000653266906738281,0.0000440526312484054
644,-0.000620841979980469,0.0000383653944067015
645,-0.000698566436767578,0.0000313626931236369
646,-0.000696659088134766,0.0000433764586416727
647,-0.000744342803955078,0.0000436625077355135
648,-0.00060272216796875,0.0000353929148479696
649,-0.000670433044433594,0.0000337368607883122
650,-0.000726222991943359,0.0000450226200545505
651,-0.000668048858642578,0.0000394184582976071
652,-0.000647544860839844,0.0000416175320350549
653,-0.000665187835693359,0.0000449505969573963
654,-0.000786781311035156,0.0000564040110878801
655,0.000784873962402344,0.0000433030103039077
656,-0.000379562377929687,0.00003397192860482
657,-0.00327396392822266,0.0000446409742100484
658,-0.000643253326416016,0.0000512361471017273
659,-0.000853538513183594,0.0000396993782235284
660,-0.000765323638916016,0.0000384985104046469
661,-0.000669002532958984,0.0000363656725470147
662,-0.000709056854248047,0.0000315407145366588
663,-0.000707149505615234,0.00004099690486947
664,-0.000722408294677734,0.0000371887130845295
665,-0.000756263732910156,0.0000448366407242039
666,-0.000797271728515625,0.0000544367625052376
667,-0.000791072845458984,0.0000479037453589051
668,-0.000797271728515625,0.0000339108001019461
669,-0.000747203826904297,0.0000412925561348386
670,-0.000766754150390625,0.000043002014591888
671,-0.000827789306640625,0.000037241409436068
672,-0.000790596008300781,0.0000387112780908546
673,-0.000806331634521484,0.0000453810209815411
674,-0.000809669494628906,0.0000442971197604889
675,-0.000823020935058594,0.0000547626249577073
676,-0.000813007354736328,0.0000390300753528711
677,-0.000733852386474609,0.0000414409624722054
678,-0.000756263732910156,0.0000334492004902551
679,-0.000764369964599609,0.0000309209686982603
680,-0.000797271728515625,0.0000324266797882118
681,-0.000817775726318359,0.000048805395438858
682,-0.000795841217041016,0.0000468321094263905
683,-0.000760555267333984,0.0000470537051105274
684,-0.000706672668457031,0.0000475906417385817
685,-0.000709056854248047,0.000033829403659016
686,-0.000791072845458984,0.0000326598645882536
687,-0.000818252563476563,0.0000338688676015468
688,-0.000863552093505859,0.0000446740689461232
689,-0.000865459442138672,0.0000465606519339398
690,-0.000797748565673828,0.0000515017243486373
691,-0.000712871551513672,0.0000452367447877175
692,-0.000826358795166016,0.0000396212657379713
693,-0.000735759735107422,0.0000324012515644113
694,-0.000845909118652344,0.0000351689628933286
695,-0.000792026519775391,0.0000331744695897931
696,-0.000779628753662109,0.0000483607860317539
697,-0.000728607177734375,0.0000431247740268753
698,-0.000803470611572266,0.0000383401983789924
699,-0.000825405120849609,0.0000455061067231557
700,-0.0007476806640625,0.0000505874561241577
701,-0.000853061676025391,0.0000483031569419715
702,-0.000762939453125,0.0000449796727877591
703,-0.000731945037841797,0.000035622640029182
704,-0.000794887542724609,0.0000364125355465442
705,-0.000815868377685547,0.0000439169352522147
706,-0.000835895538330078,0.0000375355961706217
707,-0.000747203826904297,0.0000562475866767175
708,-0.000784397125244141,0.00003806791457957
709,-0.000832080841064453,0.0000262103250388524
710,-0.000763893127441406,0.0000336364595194786
711,-0.000831127166748047,0.0000390344443096601
712,-0.000811100006103516,0.0000339317469197456
713,-0.000784397125244141,0.000044839176231358
714,-0.000837802886962891,0.0000404890627200199
715,-0.000837326049804688,0.000049979267685905
716,-0.000828266143798828,0.0000335586324880846
717,-0.000825405120849609,0.0000372047590057984
718,-0.000881671905517578,0.0000356346058478495
719,-0.000795364379882813,0.0000415259190694375
720,-0.000857830047607422,0.0000341504966986894
721,-0.000873088836669922,0.0000443458557128906
722,-0.000849246978759766,0.0000437028474326691
723,-0.000870704650878906,0.0000388336954509513
724,-0.000856876373291016,0.0000495520768597186
725,-0.000835418701171875,0.0000473331438949484
726,-0.000851154327392578,0.0000476228802752261
727,-0.000921726226806641,0.0000476980187899349
728,-0.000933647155761719,0.0000352262946352783
729,-0.000883102416992188,0.0000428444223356095
730,-0.000885009765625,0.0000496483435320865
731,-0.000897407531738281,0.0000452643810232611
732,-0.000962734222412109,0.0000344892067621346
733,-0.00101470947265625,0.0000277601554299679
734,-0.00100946426391602,0.0000377221593276764
735,-0.000989437103271484,0.0000632362303590285
736,-0.00100231170654297,0.0000516945142881168
737,-0.00100803375244141,0.0000483078639344736
738,-0.000995159149169922,0.0000439324645791683
739,-0.000944137573242188,0.0000368516773024453
740,-0.00100612640380859,0.0000349955919989376
741,-0.00100040435791016,0.000033266013863735
742,-0.000979423522949219,0.0000517439727425502
743,-0.00104188919067383,0.000058937149911972
744,-0.00103282928466797,0.0000448822579377343
745,-0.00103425979614258,0.0000405479845014522
746,-0.00105714797973633,0.0000505807136771245
747,-0.000969886779785156,0.0000537928534335955
748,-0.000943183898925781,0.0000445504748902183
749,-0.0009918212890625,0.0000351794672420933
750,-0.000950813293457031,0.0000411843510982952
751,-0.00104427337646484,0.0000517483667619826
752,-0.000986576080322266,0.0000611895604946114
753,-0.000935077667236328,0.0000406942173001511
754,-0.000882148742675781,0.00004682968182307
755,-0.000950336456298828,0.0000508541855159565
756,-0.000982284545898438,0.0000523577188003959
757,-0.000959873199462891,0.0000461904847725326
758,-0.000980377197265625,0.0000709093890733211
759,-0.000968456268310547,0.0000531015502222792
760,-0.000848293304443359,0.0000329518282812829
761,-0.000967502593994141,0.0000404349756608486
762,-0.00104522705078125,0.0000381104473250119
763,-0.000942230224609375,0.0000533429270038149
764,-0.000927448272705078,0.0000406005209762704
765,-0.000912666320800781,0.0000238233733047135
766,-0.000987052917480469,0.0000317428171832099
767,-0.000946044921875,0.0000517176007861585
768,-0.000911712646484375,0.0000482207101971779
769,-0.000935554504394531,0.0000402821577724012
770,-0.000900745391845703,0.0000338881629960213
771,-0.000896453857421875,0.0000300237062384825
772,-0.000891685485839844,0.0000377560492926808
773,-0.000938892364501953,0.000050787074873712
774,-0.000920295715332031,0.0000513646808907205
775,-0.000948905944824219,0.0000586432164967005
776,-0.000888347625732422,0.0000591441485681923
777,-0.000879287719726563,0.0000448188881578206
778,-0.000925540924072266,0.0000527212433033952
779,-0.000884532928466797,0.0000572085368133977
780,-0.000926494598388672,0.0000509446446483512
781,-0.000781059265136719,0.0000413640775034367
782,-0.000850200653076172,0.0000395243069152734
783,-0.000826358795166016,0.0000337545476587383
784,-0.000845432281494141,0.0000446537058574025
785,-0.000894069671630859,0.0000562162495634979
786,-0.000898361206054688,0.0000496002335508188
787,-0.000784873962402344,0.0000424726488171828
788,-0.000781536102294922,0.0000452040619989877
789,-0.000844001770019531,0.0000305566686372653
790,-0.000910282135009766,0.0000333803040206281
791,-0.0009002685546875,0.0000391776211130734
792,-0.000870227813720703,0.0000432609838373244
793,-0.000833988189697266,0.0000423949532487051
794,-0.000840663909912109,0.0000362309960082888
795,-0.000948905944824219,0.0000392421337385998
796,-0.000996112823486328,0.0000358247220650673
797,-0.000839710235595703,0.0000542463833595044
798,-0.000863552093505859,0.0000539521806141722
799,-0.000893115997314453,0.0000471815850669195
800,-0.00084686279296875,0.0000477706593379869
801,-0.000884056091308594,0.0000378425190937434
802,-0.000861167907714844,0.0000529686460855076
803,-0.000883579254150391,0.0000616043343996426
804,-0.000859260559082031,0.0000469109381464208
805,-0.000865459442138672,0.0000320094146301688
806,-0.000966548919677734,0.0000490482127403957
807,-0.000979423522949219,0.0000554834406992385
808,-0.000886917114257813,0.000038090306155284
809,-0.000868797302246094,0.0000392146020053938
810,-0.00091552734375,0.0000479334016146764
811,-0.00102806091308594,0.0000459783291065851
812,-0.000885486602783203,0.0000449859911337128
813,-0.000926971435546875,0.0000484042564099975
814,-0.000983715057373047,0.0000478443777002558
815,-0.000975131988525391,0.0000575977049156863
816,-0.000972270965576172,0.0000477289938534822
817,-0.000979423522949219,0.0000492286737553602
818,-0.00100231170654297,0.0000318893205230192
819,-0.00103521347045898,0.0000442778671178871
820,-0.000898838043212891,0.0000770324488882281
821,-0.000909328460693359,0.0000580273793966161
822,-0.000983238220214844,0.0000351810830173722
823,-0.00103998184204102,0.0000337739083654799
824,-0.00111961364746094,0.0000343546198611913
825,-0.00107097625732422,0.000038687041998647
826,-0.00105667114257812,0.0000429371937125913
827,-0.0010523796081543,0.0000650651247833856
828,-0.00110244750976562,0.0000572333718670578
829,-0.00118875503540039,0.0000344801407403421
830,-0.00117588043212891,0.0000441698972394169
831,-0.00117158889770508,0.0000614824150000936
832,-0.00110816955566406,0.0000395746115136078
833,-0.00121259689331055,0.0000413743828835335
834,-0.00110340118408203,0.0000550741757125126
835,-0.00118446350097656,0.0000568467093351668
836,-0.00111675262451172,0.0000660518439137375
837,-0.00112819671630859,0.0000544451155454134
838,-0.00113201141357422,0.0000484030820482236
839,-0.00111246109008789,0.0000388936635292154
840,-0.00122499465942383,0.0000454498607412802
841,-0.00112152099609375,0.0000543646642613458
842,-0.00113201141357422,0.000043615614813915
843,-0.00106573104858398,0.0000538625511075916
844,-0.00107526779174805,0.0000553367416282503
845,-0.00113964080810547,0.0000368362491525175
846,-0.00114727020263672,0.0000400968734324647
847,-0.00110960006713867,0.0000399776132940734
848,-0.00113534927368164,0.0000391986537425267
849,-0.00103855133056641,0.0000393852771640951
850,-0.00108528137207031,0.0000550968777776254
851,-0.00108480453491211,0.0000506727828008332
852,-0.00110578536987305,0.0000466143382380706
853,-0.00106000900268555,0.0000433371267986365
854,-0.000914573669433594,0.0000377123632234499
855,-0.00101232528686523,0.0000388607656753581
856,-0.00104618072509766,0.0000538087017413923
857,-0.00100803375244141,0.0000357102962564492
858,-0.00113248825073242,0.000029148560542718
859,-0.000987052917480469,0.000037913052274029
860,-0.000982761383056641,0.000050952454565122
861,-0.000988960266113281,0.0000461954070322197
862,-0.000958442687988281,0.0000329888959210546
863,-0.000971794128417969,0.0000374977173830748
864,-0.000992298126220703,0.0000344215662446479
865,-0.000944614410400391,0.0000532159668487331
866,-0.000898838043212891,0.0000479334016146764
867,-0.000913619995117188,0.0000488007364349393
868,-0.000975131988525391,0.0000537991933169506
869,-0.000936031341552734,0.0000602109588704965
870,-0.000927925109863281,0.0000402553373465422
871,-0.000896930694580078,0.0000548808290002873
872,-0.000934123992919922,0.0000535938238516028
873,-0.000957965850830078,0.0000507781200865713
874,-0.000935554504394531,0.0000394580947664422
875,-0.000879287719726563,0.0000514818535777805
876,-0.000887870788574219,0.0000620236665703024
877,-0.00078582763671875,0.000044280434620549
878,-0.000957012176513672,0.0000519818118092027
879,-0.000852108001708984,0.0000488740641584969
880,-0.000881195068359375,0.0000468539521962065
881,-0.000854969024658203,0.0000415183896238041
882,-0.000867843627929688,0.0000468866972714318
883,-0.000867366790771484,0.0000669034989725909
884,-0.000883579254150391,0.0000545483785614922
885,-0.000902175903320313,0.0000796489354514021
886,-0.000760078430175781,0.0000774416429544899
887,-0.000856876373291016,0.0000590700975397184
888,-0.0008392333984375,0.0000583127200210515
889,-0.000902652740478516,0.0000573573858364215
890,-0.000838756561279297,0.000049647198598132
891,-0.000868797302246094,0.0000467762426749971
892,-0.000887870788574219,0.0000623982917898391
893,-0.000817298889160156,0.0000626673609006754
894,-0.000718593597412109,0.0000585840587871638
895,-0.000883102416992188,0.0000540763611929964
896,-0.000977516174316406,0.0000516604153633605
897,-0.000779151916503906,0.0000620694736300391
898,-0.000754833221435547,0.0000512150634082701
899,-0.000874519348144531,0.000064482419331399
900,-0.000901222229003906,0.0000618897159188559
901,-0.000940322875976563,0.0000501246357956615
902,-0.000906944274902344,0.000061593260790206
903,-0.000879764556884766,0.0000835350112189661
904,-0.000931262969970703,0.0000746733688577784
905,-0.00101566314697266,0.0000654449228307602
906,-0.00095367431640625,0.0000704703373438472
907,-0.000943183898925781,0.0000658294377939882
908,-0.000871181488037109,0.0000718949634108746
909,-0.000889778137207031,0.0000430198562441832
910,-0.000950813293457031,0.0000636090760388194
911,-0.000942707061767578,0.0000476622533180433
912,-0.00102853775024414,0.000047423127520325
913,-0.00104141235351562,0.0000390548263124042
914,-0.000984668731689453,0.0000555203108599357
915,-0.000987529754638672,0.000063077824523212
916,-0.00106096267700195,0.0000413510203350772
917,-0.00108861923217773,0.0000304224349106326
918,-0.00104284286499023,0.0000464824520749423
919,-0.00101280212402344,0.0000725435298157844
920,-0.00102758407592773,0.0000725247215370613
921,-0.00118064880371094,0.0000633906536179289
922,-0.00121593475341797,0.000056839709309363
923,-0.00124454498291016,0.0000608345923661182
924,-0.0011439323425293,0.0000512150634082701
925,-0.00130796432495117,0.0000465899430415923
926,-0.00138235092163086,0.0000662511994665467
927,-0.00148916244506836,0.0000545671326603006
928,-0.00146818161010742,0.0000450907463434947
929,-0.00156164169311523,0.0000592833442151001
930,-0.00159263610839844,0.0000775619281921036
931,-0.00164699554443359,0.0000781867548755333
932,-0.00162744522094727,0.0000637001617891189
933,-0.0016322135925293,0.0000778150907647656
934,-0.0017695426940918,0.0000890166983728145
935,-0.00176715850830078,0.0000701680095773548
936,-0.00190639495849609,0.000053551381695786
937,-0.00199794769287109,0.0000476527113252914
938,-0.00205659866333008,0.000078268138880336
939,-0.00208520889282227,0.0000889783759063591
940,-0.00212907791137695,0.0000869414197401607
941,-0.00210428237915039,0.0000644383275771827
942,-0.00223016738891602,0.0000597370584247652
943,-0.00235462188720703,0.0000745224934009923
944,-0.00251197814941406,0.000078122750823606
945,-0.00263071060180664,0.0000650651247833856
946,-0.00242137908935547,0.0000703540868800365
947,-0.00266551971435547,0.0000750651345488315
948,-0.00269222259521484,0.0000800759952868185
949,-0.00292396545410156,0.0000864536144945365
950,-0.00313806533813477,0.0000913936504418254
951,-0.0028681755065918,0.0000930382492533251
952,-0.00301742553710937,0.0000887967584826181
953,-0.00325679779052734,0.000108116976717519
954,-0.003662109375,0.000108272489389051
955,-0.00362873077392578,0.000121446595582798
956,-0.00372409820556641,0.000111286069901142
957,-0.00377607345581055,0.0000748345750717328
958,-0.00408124923706055,0.000103845455745168
959,-0.00428390502929688,0.000126022206306503
960,-0.00440120697021484,0.000102319076970564
961,-0.00410795211791992,0.00018304088566195
962,-0.00404119491577148,0.000170590451000718
963,-0.00397729873657227,0.000101737428970496
964,-0.00430202484130859,0.000103038761644084
965,-0.00433015823364258,0.000117249593451955
966,-0.00427913665771484,0.000136315392571502
967,-0.00403785705566406,0.000104821779664909
968,-0.00399112701416016,0.000116718983622445
969,-0.00396490097045898,0.000109838277567603
970,-0.0040287971496582,0.000107304253990442
971,-0.00421285629272461,0.000218381006917189
972,-0.00353193283081055,0.000174097158021849
973,-0.00355148315429687,0.000114124576129505
974,-0.0036320686340332,0.000143957446054721
975,-0.00349950790405273,0.000190094827627797
976,-0.00383615493774414,0.00017028628710682
977,-0.00343227386474609,0.000138804667653353
978,-0.00307893753051758,0.000126956941932373
979,-0.00309991836547852,0.000145475194502548
980,-0.00316715240478516,0.000145859178881112
981,-0.00288295745849609,0.000132433741278381
982,-0.00306034088134766,0.000140102514801353
983,-0.00265836715698242,0.000237914506198214
984,-0.0023345947265625,0.000199530000439553
985,-0.0028233528137207,0.000135820768058719
986,-0.00249862670898437,0.000158940633056638
987,-0.00221157073974609,0.000177726618694482
988,-0.00200796127319336,0.000185719350284338
989,-0.00174903869628906,0.00020256096360302
990,-0.00217390060424805,0.000162695832154359
991,-0.00196361541748047,0.000189255700958311
992,-0.0021815299987793,0.000185827056256387
993,-0.00183343887329102,0.000197366810981316
994,-0.00159931182861328,0.00016823906981993
995,-0.00133228302001953,0.000181769424067985
996,-0.00165939331054687,0.000191681420493022
997,-0.00182056427001953,0.000238571118195288
998,-0.00135564804077148,0.00022404243479941
999,-0.00162172317504883,0.000155711975308788
1000,-0.000999927520751953,0.000129003620309823
1001,-0.00107145309448242,0.000174206828823554
1002,-0.00137948989868164,0.000194147105104035
1003,-0.00144147872924805,0.000310177348515889
1004,-0.000964164733886719,0.000241138205730967
1005,-0.0008697509765625,0.000192764922990763
1006,-0.000790119171142578,0.000149495863844677
1007,-0.000686168670654297,0.0001993247765639
1008,-0.00144386291503906,0.000272216807566416
1009,-0.000204563140869141,0.00027962667701924
1010,-0.000504970550537109,0.000258626909557355
1011,-0.000296592712402344,0.000230485542996859
1012,-0.000772476196289063,0.00020740607610303
1013,-0.000802040100097656,0.000245314992258751
1014,-0.000601291656494141,0.000325279842021382
1015,0.00000095367431640625,0.000267715932433081
1016,-0.00100278854370117,0.000193438442457392
1017,-0.000769138336181641,0.000304453710809853
1018,-0.000806331634521484,0.000297216085355085
1019,-0.000756740570068359,0.000283682444278238
1020,0.0000524520874023438,0.00027198952009629
1021,-0.000712394714355469,0.000224601943732767
1022,-0.000497817993164063,0.000316113906484981
1023,-0.000611782073974609,0.000342149850260678
1024,-0.000562667846679688,0.00041956467739498
1025,-0.0002288818359375,0.000347137451171875
1026,-0.000476837158203125,0.000272517337738299
1027,-0.000744342803955078,0.000295121755586712
1028,-0.00101566314697266,0.000345719764734664
1029,-0.000716686248779297,0.000280282918424114
1030,-0.000875473022460938,0.000225147944023515
1031,-0.000458717346191406,0.000284885361518294
1032,-0.000862598419189453,0.000271172390976192
1033,-0.000746250152587891,0.000169257713594227
1034,-0.00164031982421875,0.000339625906046123
1035,-0.000536918640136719,0.000477576636082428
1036,-0.000080108642578125,0.000314608470013991
1037,-0.00101327896118164,0.000296578912935265
1038,-0.00123167037963867,0.000354264015794788
1039,-0.0012059211730957,0.00055909721070718
1040,-0.000562667846679688,0.00043680365900108
1041,-0.000393390655517578,0.000308760804895696
1042,-0.000603199005126953,0.000338746405934125
1043,-0.00159549713134766,0.000422846759962688
1044,-0.00209474563598633,0.000389650365757772
1045,-0.00118017196655273,0.000508515027907808
1046,-0.000895977020263672,0.000500423729618176
1047,-0.00171613693237305,0.00039638908244084
1048,-0.00200271606445312,0.00035557603330605
1049,-0.00115489959716797,0.00048899598263434
1050,-0.00152301788330078,0.000422045872332409
1051,-0.0000429153442382813,0.000504882064501505
1052,-0.000440597534179688,0.000527312048206405
1053,-0.00245523452758789,0.000493174118468238
1054,-0.00140285491943359,0.000602589363242862
1055,-0.00236034393310547,0.000552815314287631
1056,-0.00156307220458984,0.000541351106754277
1057,-0.00124549865722656,0.000772210063537129
1058,-0.00140047073364258,0.000642456631639364
1059,-0.00259637832641602,0.000820434879075321
1060,-0.00294303894042969,0.000771003072029409
1061,-0.00243186950683594,0.000727617880372963
1062,-0.00197839736938477,0.00092356649085269
1063,-0.00141000747680664,0.000973218915960814
1064,-0.00276947021484375,0.00072525411260092
1065,-0.00170326232910156,0.000596521569668067
1066,-0.00341653823852539,0.000748789218504764
1067,0.000095367431640625,0.000909067250438027
1068,-0.00182247161865234,0.000962891856264329
1069,-0.00354242324829102,0.0011083911273732
1070,-0.00284957885742187,0.000984369306320799
1071,-0.00127744674682617,0.000779170009258227
1072,-0.00105524063110352,0.00109653803011546
1073,0.000391960144042969,0.000744325544754701
1074,-0.00291347503662109,0.00091755959340655
1075,-0.00397300720214844,0.00102060084854291
1076,-0.00333547592163086,0.00161296299157431
1077,-0.00130558013916016,0.0012474001729753
1078,-0.00204277038574219,0.000961924155903642
1079,-0.00181961059570312,0.00123169243985165
1080,-0.00416135787963867,0.00115888971013485
1081,-0.00370597839355469,0.00126801822440086
1082,-0.00258541107177734,0.00130435873931972
1083,-0.00104379653930664,0.000911592930551306
1084,-0.00439262390136719,0.00102196871760849
1085,-0.00482797622680664,0.00156794730981025
1086,-0.00392770767211914,0.00144673116753821
1087,0.000537872314453125,0.0011989563769875
1088,-0.00332164764404297,0.001416645238927
1089,-0.00186967849731445,0.00104419629583286
1090,-0.0059351921081543,0.00133055853185161
1091,-0.00500774383544922,0.00145239307059214
1092,-0.00133800506591797,0.00146853458823549
1093,0.000174045562744141,0.00188861034770422
1094,0.0016326904296875,0.00146373070709844
1095,-0.00230312347412109,0.00170782594928524
1096,-0.00400733947753906,0.00203463236093546
1097,-0.00293540954589844,0.00187217320501212
1098,-0.00222063064575195,0.00179217709203224
1099,-0.00531673431396484,0.00201433354411726
1100,-0.00343990325927734,0.00218483268379792
