Wavelength (nm),Absorbance (AU),Std.Dev.
190,0.311078548431396,0.000106907273699358
191,0.298412799835205,0.0000853125509578623
192,0.288728713989258,0.0000749180831196059
193,0.280483245849609,0.0000559832005364959
194,0.273674488067627,0.0000375598185470528
195,0.267906188964844,0.0000332249784691712
196,0.263080596923828,0.0000309191302982647
197,0.25875186920166,0.000033744442010792
198,0.254110336303711,0.0000400294783162024
199,0.249155044555664,0.0000366730867291903
200,0.244343280792236,0.0000316118222121567
201,0.239799022674561,0.0000335518563885732
202,0.235605239868164,0.0000386517623724942
203,0.231511116027832,0.0000415956726509534
204,0.227272510528564,0.0000366405221940758
205,0.222748279571533,0.0000368794317076952
206,0.217554092407227,0.0000378763013665415
207,0.211848735809326,0.0000391594804690769
208,0.205585956573486,0.000032813534403679
209,0.198824882507324,0.0000437041480932974
210,0.191492080688477,0.0000425107747803167
211,0.183588027954102,0.0000570861910035179
212,0.175429344177246,0.000035640985975173
213,0.166621208190918,0.0000293041554857025
214,0.15785551071167,0.0000287855261673988
215,0.148829936981201,0.0000350377984059625
216,0.139863967895508,0.0000366668861903466
217,0.130838394165039,0.0000409365464033726
218,0.122193813323975,0.0000416496172056272
219,0.1135573387146,0.0000526802562220645
220,0.105453491210937,0.0000497592769113366
221,0.0975852012634277,0.0000417960757539551
222,0.0902109146118164,0.0000446116776321471
223,0.083221435546875,0.0000509022270486602
224,0.0768399238586426,0.0000528321799639303
225,0.0708370208740234,0.0000522011476248311
226,0.0653314590454102,0.0000467738121721416
227,0.0602712631225586,0.0000544868615380101
228,0.0555882453918457,0.0000487272983636067
229,0.0514068603515625,0.0000518986373549492
230,0.0476832389831543,0.0000446091291943607
231,0.0443711280822754,0.0000433712164567915
232,0.0412511825561523,0.0000510995038017991
233,0.0384979248046875,0.0000507602057730532
234,0.0360236167907715,0.0000622103474489514
235,0.0339269638061523,0.000051596556851471
236,0.0321879386901855,0.000061412109185216
237,0.0306639671325684,0.0000585491179935265
238,0.0293445587158203,0.0000641855406252524
239,0.0282983779907227,0.0000635572239633266
240,0.027350902557373,0.0000529385892962361
241,0.0265064239501953,0.0000458185676922289
242,0.0258426666259766,0.0000545473364780549
243,0.0252032279968262,0.0000570583032680952
244,0.0246081352233887,0.0000480908654504245
245,0.0241241455078125,0.0000508385342900759
246,0.0237040519714355,0.0000494935378851387
247,0.0233025550842285,0.0000560207564685199
248,0.022974967956543,0.0000484605923077238
249,0.0226645469665527,0.0000428397784931254
250,0.0223555564880371,0.0000517758209348312
251,0.0220751762390137,0.0000604154749372229
252,0.0218772888183594,0.0000542474312241974
253,0.0217137336730957,0.0000649199387554837
254,0.0214710235595703,0.0000555663641574772
255,0.0213127136230469,0.0000560684263795421
256,0.0211572647094727,0.0000475249029984843
257,0.0209469795227051,0.000048560193451239
258,0.0208425521850586,0.000064288189417121
259,0.0206856727600098,0.0000651873194751753
260,0.020505428314209,0.0000617812422152998
261,0.0204386711120605,0.0000630597986820977
262,0.0202507972717285,0.0000647937307413598
263,0.0200533866882324,0.0000607120634850294
264,0.0199003219604492,0.0000712516626142611
265,0.0197649002075195,0.000079057242492915
266,0.0195322036743164,0.000065180343092506
267,0.0194411277770996,0.0000700025531902411
268,0.0192050933837891,0.0000801469506902586
269,0.0190544128417969,0.0000743070813211194
270,0.0188155174255371,0.0000705525655295627
271,0.018561840057373,0.0000731910089658733
272,0.0184812545776367,0.0000959450396007771
273,0.018345832824707,0.000064923441031469
274,0.0180258750915527,0.0000685435792447659
275,0.0178208351135254,0.0000777522429431117
276,0.0176362991333008,0.0000665576540952315
277,0.017390251159668,0.0000559710148224673
278,0.0172104835510254,0.0000453872834560043
279,0.0170331001281738,0.000056857707634514
280,0.0166611671447754,0.0000696035265102922
281,0.0164837837219238,0.0000686562718592675
282,0.0163273811340332,0.0000642917261075056
283,0.0160427093505859,0.000048771607577046
284,0.0158138275146484,0.0000572889633191711
285,0.015596866607666,0.0000587071560575754
286,0.0153012275695801,0.0000546025394945087
287,0.0150589942932129,0.0000566574050756611
288,0.0149116516113281,0.0000571389412370353
289,0.0146961212158203,0.0000608719566127181
290,0.0144267082214355,0.0000696688298286018
291,0.0142121315002441,0.0000568896905973215
292,0.0140175819396973,0.0000741983746689035
293,0.0137495994567871,0.0000653980032958744
294,0.013613224029541,0.000057056310765405
295,0.0133781433105469,0.0000481227688770017
296,0.0131945610046387,0.0000522957987627228
297,0.0130224227905273,0.0000502209368177661
298,0.0127887725830078,0.0000629352796626908
299,0.0125308036804199,0.000064235115694364
300,0.0123257637023926,0.000055756314238816
301,0.0122008323669434,0.0000587729604268288
302,0.0119109153747559,0.000059204666882205
303,0.0118112564086914,0.0000617665192500111
304,0.0116047859191895,0.000066794657417694
305,0.0113387107849121,0.0000701388397529484
306,0.0112128257751465,0.0000697112441808938
307,0.0110859870910645,0.0000658121656194212
308,0.0109152793884277,0.0000688051400434846
309,0.0107073783874512,0.0000538298255602649
310,0.0105862617492676,0.0000386782251089517
311,0.0104484558105469,0.0000411760689522606
312,0.010216236114502,0.0000546462456755603
313,0.0100069046020508,0.0000517670371836551
314,0.00994300842285156,0.0000672306573977677
315,0.00973749160766602,0.0000739589650423655
316,0.00961208343505859,0.000071830101233103
317,0.00951576232910156,0.0000607382736342287
318,0.00931215286254883,0.0000471779705891828
319,0.00914716720581055,0.000050658197637599
320,0.00898981094360352,0.0000490493716561674
321,0.008819580078125,0.0000511973019846708
322,0.00874471664428711,0.0000697291809479939
323,0.00860738754272461,0.0000632506112177872
324,0.00848007202148438,0.0000551515307425083
325,0.008331298828125,0.0000437639366955952
326,0.00816440582275391,0.0000506413633833472
327,0.00805330276489258,0.0000574850877363357
328,0.00789356231689453,0.0000556093128249727
329,0.00772285461425781,0.0000556930695289715
330,0.00766801834106445,0.0000515745183416448
331,0.00747060775756836,0.0000462642636792683
332,0.00737571716308594,0.0000537146000128168
333,0.00725078582763672,0.0000508038608453516
334,0.00707292556762695,0.0000582219927548467
335,0.00698375701904297,0.0000412216001630957
336,0.00688838958740234,0.0000461584772901014
337,0.00680732727050781,0.0000608009449120142
338,0.00674295425415039,0.0000424076889952547
339,0.00662136077880859,0.0000313336804503377
340,0.0065770149230957,0.0000445223955163477
341,0.00650310516357422,0.000055614423552297
342,0.00642156600952148,0.0000434824769090745
343,0.00632619857788086,0.0000498551434970123
344,0.00595712661743164,0.0000564261781200143
345,0.00603151321411133,0.0000412374552881229
346,0.0059657096862793,0.0000313427497956463
347,0.00585365295410156,0.0000392631318096903
348,0.00583219528198242,0.0000541719331583069
349,0.00569963455200195,0.0000496094009538267
350,0.00563812255859375,0.0000514652887414246
351,0.00555944442749023,0.0000479523719930246
352,0.00537252426147461,0.0000705960593237342
353,0.00534391403198242,0.0000657015161795355
354,0.00530529022216797,0.0000639068537663319
355,0.00517606735229492,0.0000520080497910918
356,0.00506973266601563,0.0000410128468593704
357,0.00508880615234375,0.0000422128830388142
358,0.00501489639282227,0.0000531796368468507
359,0.00494241714477539,0.0000523588044632328
360,0.00495672225952148,0.0000481062290006317
361,0.00468349456787109,0.0000477956411943406
362,0.00459194183349609,0.0000658208022732581
363,0.00435781478881836,0.0000667537960818444
364,0.0045170783996582,0.0000603307367474926
365,0.00446128845214844,0.0000754413048006166
366,0.00435781478881836,0.0000522675301736215
367,0.00427913665771484,0.0000574929978932738
368,0.0041813850402832,0.0000689075065887673
369,0.00417041778564453,0.000076270099728135
370,0.00408554077148438,0.0000715176260029338
371,0.0040593147277832,0.0000770678606808838
372,0.00399637222290039,0.0000563586422752024
373,0.00388288497924805,0.0000609382217277372
374,0.00385570526123047,0.0000592344230376412
375,0.00375986099243164,0.0000717936894763225
376,0.00366735458374023,0.0000870668613151833
377,0.00374650955200195,0.0000765557565322475
378,0.00364780426025391,0.0000686314291012652
379,0.0035710334777832,0.0000828764380737321
380,0.00357913970947266,0.0000821586410725204
381,0.00343227386474609,0.0000705300026325466
382,0.0034022331237793,0.0000586034613374696
383,0.00341320037841797,0.0000849145099241336
384,0.00335168838500977,0.0000734437587718643
385,0.00330638885498047,0.0000760835488335635
386,0.0032191276550293,0.0000584140115672309
387,0.0031585693359375,0.0000798527855126545
388,0.00307035446166992,0.000073607657972094
389,0.0030064582824707,0.0000759219997508059
390,0.00291681289672852,0.0000777654013412369
391,0.00297260284423828,0.000088817240982973
392,0.00288295745849609,0.0000739789454366484
393,0.00278329849243164,0.0000784697808374547
394,0.00274133682250977,0.0000661206551043051
395,0.0027918815612793,0.0000609036981992323
396,0.0027313232421875,0.0000572135046865554
397,0.00264215469360352,0.000079540382946073
398,0.00256490707397461,0.0000790974971380004
399,0.00255489349365234,0.0000568387092353016
400,0.00242424011230469,0.0000710775329810565
401,0.00249576568603516,0.0000758440941342062
402,0.00240421295166016,0.0000743529659443841
403,0.00243520736694336,0.0000618676688781093
404,0.00240230560302734,0.0000614861130792525
405,0.00222396850585937,0.0000555632951251832
406,0.00218915939331055,0.0000706057209728281
407,0.00226402282714844,0.0000831229886936757
408,0.00216817855834961,0.0000595598052165014
409,0.00222921371459961,0.0000770767110869475
410,0.00215530395507812,0.0000768595827577187
411,0.00212574005126953,0.0000668661046713185
412,0.00207376480102539,0.0000684755426045704
413,0.00198841094970703,0.0000729732243969012
414,0.00200557708740234,0.0000614232154533573
415,0.00206279754638672,0.0000637269269390229
416,0.00195741653442383,0.0000685701118162323
417,0.00188541412353516,0.0000631102580626882
418,0.00180530548095703,0.0000602770076127301
419,0.00184345245361328,0.0000586150997848247
420,0.00186729431152344,0.0000416257263445955
421,0.00185585021972656,0.0000458508124589753
422,0.00169944763183594,0.0000510650075572374
423,0.00175237655639648,0.000049379705299376
424,0.00170993804931641,0.0000584850056555547
425,0.00156974792480469,0.0000530887030728439
426,0.00175237655639648,0.0000547065444258869
427,0.00168132781982422,0.0000566774671863694
428,0.00157690048217773,0.0000601344405000093
429,0.00160503387451172,0.0000605076104468432
430,0.00154972076416016,0.0000845576288574122
431,0.00153970718383789,0.0000659036565625658
432,0.00158596038818359,0.0000551618365504545
433,0.00162410736083984,0.0000565881361957147
434,0.00150680541992187,0.0000432307520788807
435,0.00135946273803711,0.0000593772364751237
436,0.00141191482543945,0.0000730588600446919
437,0.00141811370849609,0.0000544649488815525
438,0.00138521194458008,0.0000639459786004647
439,0.00136756896972656,0.0000537896832117008
440,0.00138044357299805,0.0000546639263378963
441,0.00130510330200195,0.0000811506239154224
442,0.00126171112060547,0.0000658708725347038
443,0.00132417678833008,0.0000502594055609155
444,0.00124835968017578,0.0000618511284402506
445,0.00123786926269531,0.0000383542805524866
446,0.00135040283203125,0.0000359285012060076
447,0.00124645233154297,0.0000468272540938985
448,0.00117826461791992,0.0000642828840167062
449,0.00119113922119141,0.0000798300029770944
450,0.00120735168457031,0.0000824073392633387
451,0.00120925903320312,0.0000762641371670714
452,0.00118017196655273,0.0000575957310733967
453,0.00108432769775391,0.0000595970148925156
454,0.00111770629882812,0.0000555561333905101
455,0.00102043151855469,0.0000466630903700356
456,0.00106430053710937,0.0000375734367715681
457,0.00110769271850586,0.000055103067626666
458,0.00100278854370117,0.0000521652005431265
459,0.00110387802124023,0.0000674113512504269
460,0.000922203063964844,0.0000677226284735422
461,0.000874042510986328,0.0000841533154151095
462,0.000948905944824219,0.0000670274306018276
463,0.000973701477050781,0.0000630543899248923
464,0.00104331970214844,0.0000491130699095417
465,0.000965118408203125,0.0000569406263135801
466,0.000804901123046875,0.0000620254995022167
467,0.000972270965576172,0.0000587187739519583
468,0.000895500183105469,0.0000571140651218798
469,0.0007476806640625,0.0000457465551575144
470,0.000976085662841797,0.0000732422495881453
471,0.0010371208190918,0.0000803212342225035
472,0.00100040435791016,0.0000659726223166425
473,0.000768661499023438,0.0000639495342166147
474,0.000925064086914063,0.0000905990600585938
475,0.000899314880371094,0.0000744965547540181
476,0.000799179077148438,0.0000755753050085409
477,0.000681400299072266,0.0000662786497264635
478,0.000807285308837891,0.0000632272406613076
479,0.000789165496826172,0.0000708227596206029
480,0.000806808471679688,0.0000759893536066489
481,0.000827789306640625,0.0000496414735322568
482,0.000826358795166016,0.0000543834817139161
483,0.00086212158203125,0.0000484089535722026
484,0.000695705413818359,0.0000481593726740568
485,0.000949382781982422,0.0000575345083748901
486,0.000710487365722656,0.0000733275710553783
487,0.000891208648681641,0.0000916867467439388
488,0.000757694244384766,0.000071104718881068
489,0.000705718994140625,0.0000749681432983758
490,0.000661849975585938,0.0000597636961766925
491,0.000711917877197266,0.0000593159359178339
492,0.000675678253173828,0.0000678618185906274
493,0.000652790069580078,0.0000673776135218484
494,0.000777244567871094,0.0000863220139456072
495,0.000633716583251953,0.0000652343905436046
496,0.000566959381103516,0.0000647586293081854
497,0.000521183013916016,0.0000723630827525862
498,0.000549793243408203,0.0000582581054733256
499,0.000548362731933594,0.000063718006471596
500,0.000552177429199219,0.0000775970983548204
501,0.000471591949462891,0.0000616172510953798
502,0.000422954559326172,0.0000672813681816839
503,0.000561714172363281,0.0000623563727597646
504,0.000546932220458984,0.0000977597582148704
505,0.000533580780029297,0.0000760177739833899
506,0.000561714172363281,0.0000555172392817829
507,0.00051116943359375,0.0000558897088312251
508,0.000387668609619141,0.000062298003709112
509,0.000463962554931641,0.0000567376109553908
510,0.000475406646728516,0.0000570483400587318
511,0.000529766082763672,0.0000700171680106496
512,0.000418663024902344,0.0000668899034636164
513,0.000349521636962891,0.0000624110441670223
514,0.000399589538574219,0.000071953447379833
515,0.000366687774658203,0.0000704332226354896
516,0.000402450561523438,0.0000551989215273001
517,0.00048065185546875,0.0000633834794832728
518,0.000543117523193359,0.0000479819981941191
519,0.000404834747314453,0.0000630706148049894
520,0.000371932983398437,0.0000654727111331985
521,0.000404834747314453,0.0000392877359457933
522,0.000431060791015625,0.0000469847955713158
523,0.000409603118896484,0.0000663283743668658
524,0.000452518463134766,0.0000809205442337707
525,0.000473499298095703,0.0000641483341808002
526,0.000319957733154297,0.0000653145075665883
527,0.000388622283935547,0.0000502616675112558
528,0.000298500061035156,0.0000514951016103153
529,0.000398159027099609,0.0000488263554550438
530,0.000312328338623047,0.0000451940010013116
531,0.000339508056640625,0.000049548635305105
532,0.000415802001953125,0.0000610202532693725
533,0.000378131866455078,0.0000597351552736608
534,0.0004119873046875,0.0000462630349949843
535,0.000313758850097656,0.0000546077444456186
536,0.000324726104736328,0.0000627942217049987
537,0.000258445739746094,0.0000690393681772688
538,0.00023651123046875,0.0000575483385482882
539,0.000298500061035156,0.0000634910063862045
540,0.000340938568115234,0.0000581369906811803
541,0.000314235687255859,0.0000405262495321899
542,0.000358104705810547,0.0000401903295625791
543,0.000243663787841797,0.000053905802768946
544,0.000256538391113281,0.0000572929320731294
545,0.000222682952880859,0.0000386796947301354
546,0.000223636627197266,0.0000383987166690568
547,0.000194072723388672,0.0000448670573532147
548,0.000262737274169922,0.0000558031914144055
549,0.000145912170410156,0.0000506604417821784
550,0.00018310546875,0.0000545629656398546
551,0.000257492065429687,0.0000625656870531339
552,0.000206470489501953,0.0000638196258858873
553,0.000184535980224609,0.0000523750867052731
554,0.000150203704833984,0.0000534887180450438
555,0.00022125244140625,0.0000535641178736328
556,0.000235080718994141,0.0000552709599737289
557,0.000243186950683594,0.0000569895216687342
558,0.000216484069824219,0.0000589959535633358
559,0.000217437744140625,0.0000592305843737114
560,0.000217914581298828,0.0000565610078895901
561,0.000249385833740234,0.0000511473149130246
562,0.000245094299316406,0.0000541782286821414
563,0.000203132629394531,0.0000328490276908574
564,0.000261306762695312,0.0000383283356935665
565,0.000188350677490234,0.0000348719265267818
566,0.000177860260009766,0.000035522768125402
567,0.000141143798828125,0.0000439686783455687
568,0.000176429748535156,0.0000442341967715786
569,0.000181674957275391,0.0000429788755006552
570,0.000159740447998047,0.000032205929018632
571,0.000156402587890625,0.0000255686558175856
572,0.00016021728515625,0.000034130516883202
573,0.000210285186767578,0.0000418599477998154
574,0.00017547607421875,0.0000303780263265372
575,0.000161170959472656,0.0000411076775784536
576,0.000241279602050781,0.0000319053591886904
577,0.000159740447998047,0.0000289528910117856
578,0.000132083892822266,0.0000419576057720078
579,0.000161170959472656,0.0000393809471290296
580,0.000142097473144531,0.0000398194716904102
581,0.000192165374755859,0.0000449834639018278
582,0.000130176544189453,0.0000544649488815525
583,0.000127792358398437,0.0000335103228810953
584,0.000156879425048828,0.0000326685657645338
585,0.000110626220703125,0.0000325281939042899
586,0.000128746032714844,0.0000381074641197373
587,0.000164508819580078,0.00004974213843587
588,0.000177383422851562,0.0000452467962809618
589,0.000149250030517578,0.000047287486834748
590,0.000138282775878906,0.0000485882791640852
591,0.000087738037109375,0.0000578802534028712
592,0.000126838684082031,0.000035934829153079
593,0.000109195709228516,0.0000381410117260384
594,0.000102519989013672,0.0000460092264483602
595,0.0000858306884765625,0.0000480825907362195
596,0.000113010406494141,0.0000427959689187572
597,0.0000605583190917969,0.0000419128741137423
598,0.000087738037109375,0.0000329664879112075
599,0.000107765197753906,0.0000248630685980489
600,0.000087738037109375,0.000037469662427664
601,0.0000667572021484375,0.0000420509818425446
602,0.0000848770141601563,0.0000383631718934342
603,0.000112056732177734,0.0000331624731390777
604,0.0000987052917480469,0.0000404089600236825
605,0.000131607055664062,0.000041405283634362
606,0.00005340576171875,0.0000388263759342619
607,0.0000467300415039063,0.0000261163585308296
608,0.0000538825988769531,0.0000321202125199019
609,0.0000395774841308594,0.0000454073175701806
610,0.0000743865966796875,0.000039597586616567
611,0.0000562667846679688,0.0000267284135002928
612,0.0000624656677246094,0.0000308961410685792
613,0.00000762939453125,0.0000335662539649582
614,-0.00000715255737304688,0.0000279707775274613
615,0.0000476837158203125,0.0000341588181727033
616,0.0000100135803222656,0.0000469242652898504
617,0.000105381011962891,0.000033207865422211
618,0.0000782012939453125,0.0000357365511982588
619,0.0000591278076171875,0.0000513525061490733
620,0.000105381011962891,0.0000450352438091949
621,0.0000162124633789062,0.0000547813057104109
622,0.0000019073486328125,0.0000455036083780593
623,-0.0000352859497070312,0.0000339401220270976
624,-0.0000214576721191406,0.0000336896504047423
625,0.00002288818359375,0.0000382778782661237
626,-0.00006103515625,0.0000426882457104972
627,0.0000505447387695313,0.0000374635937290086
628,0.0000238418579101562,0.000036514644086984
629,-0.0000143051147460937,0.000031283752053207
630,-0.0000143051147460937,0.0000363461284640494
631,-0.0000557899475097656,0.0000521248667596273
632,-0.0000605583190917969,0.00004901343252513
633,0.00000524520874023438,0.0000440513408770978
634,0.0000624656677246094,0.0000414066564658352
635,0.0000472068786621094,0.0000338655107585234
636,-0.0000696182250976563,0.0000455797462972844
637,-0.0000133514404296875,0.000054724205606503
638,-0.0000710487365722656,0.0000519205382874153
639,0.0000157356262207031,0.000044516011370354
640,0.0000596046447753906,0.0000602439922932144
641,0.0000948905944824219,0.0000461276799199544
642,0.0000905990600585938,0.0000530951270361312
643,0.0000143051147460937,0.0000455747575437755
644,-0.00000762939453125,0.000043348930098684
645,0.0000309944152832031,0.0000466801415872983
646,-0.000030517578125,0.0000470331637080391
647,0.00000286102294921875,0.0000551175079044492
648,-0.000034332275390625,0.0000602958653930728
649,-0.0000586509704589844,0.0000639495342166147
650,-0.0000619888305664063,0.0000446931509156469
651,-0.0000767707824707031,0.0000397294356230606
652,-0.0000500679016113281,0.0000370501244541723
653,0.0000371932983398437,0.000037335161942929
654,-0.0000638961791992188,0.0000482254252368095
655,0.000100135803222656,0.0000296761703797929
656,0.000241756439208984,0.0000283372291612501
657,-0.000388622283935547,0.0000468988192751172
658,0.000131130218505859,0.0000552894689746296
659,-0.0000505447387695313,0.0000395710204487915
660,-0.0000333786010742187,0.0000471044160542595
661,-0.00005340576171875,0.0000558408684121986
662,-0.000111103057861328,0.0000421070430888642
663,-0.0000214576721191406,0.0000407479602547686
664,-0.000127315521240234,0.0000460314596928609
665,-0.0000910758972167969,0.0000296517382497139
666,-0.0000667572021484375,0.0000255769913390846
667,-0.00000524520874023438,0.0000326424552775346
668,-0.0000395774841308594,0.0000431807575833522
669,-0.0000791549682617188,0.000060358996028984
670,-0.0000019073486328125,0.0000566564017836452
671,-0.0000662803649902344,0.0000504445486521877
672,-0.0000629425048828125,0.0000551206017575116
673,-0.000121593475341797,0.0000334789267016942
674,-0.000026702880859375,0.0000357007442176916
675,-0.0000276565551757812,0.0000313246084792016
676,-0.00000524520874023438,0.0000332429376871685
677,-0.0000486373901367188,0.0000475117443354841
678,-0.0000386238098144531,0.0000495624000896946
679,-0.00000810623168945313,0.0000378672957072821
680,-0.0000214576721191406,0.0000536796664379733
681,-0.0000181198120117187,0.0000537970801055148
682,-0.0000491142272949219,0.0000382541105654365
683,-0.0000772476196289063,0.0000289263742219984
684,-0.0000796318054199219,0.0000416871323241672
685,-0.000128269195556641,0.0000479464445560752
686,-0.000183582305908203,0.0000383313017091015
687,-0.000102996826171875,0.0000435947573246171
688,-0.0000290870666503906,0.0000498152215069594
689,-0.000109672546386719,0.0000536033687054846
690,-0.0000901222229003906,0.0000403082552499916
691,-0.0000743865966796875,0.0000596627905473882
692,-0.0000677108764648438,0.0000494717115377157
693,-0.0000796318054199219,0.0000459808016579626
694,-0.0000777244567871094,0.0000388790456974783
695,-0.0000834465026855469,0.0000336508208982509
696,-0.000072479248046875,0.0000360090992338588
697,-0.0000443458557128906,0.0000438936309601772
698,-0.0000376701354980469,0.0000420888144924304
699,-0.0000562667846679688,0.0000338285635004767
700,-0.0000977516174316406,0.0000394782580457349
701,-0.000119686126708984,0.0000363695801033089
702,-0.000101089477539062,0.0000511017285663168
703,-0.0000586509704589844,0.0000477587586229875
704,-0.000030517578125,0.0000533269402719536
705,-0.0000443458557128906,0.0000458408934080298
706,-0.0000844001770019531,0.0000381044806809071
707,-0.000107765197753906,0.0000460943956482703
708,-0.0000238418579101562,0.0000438690185546875
709,-0.0000791549682617188,0.000044106792754544
710,-0.0000844001770019531,0.0000446014830073265
711,-0.000115871429443359,0.0000431794411570426
712,-0.000135421752929687,0.0000370784968488139
713,-0.0000715255737304688,0.0000394033138551075
714,-0.000147342681884766,0.0000623180742366964
715,-0.0001068115234375,0.0000506458530649361
716,-0.000120639801025391,0.0000481263123966763
717,-0.000139713287353516,0.0000365683118109178
718,-0.000158309936523437,0.0000298780433010524
719,-0.000153064727783203,0.000035322981810639
720,-0.00017547607421875,0.0000462667209499475
721,-0.000161170959472656,0.0000418965962152267
722,-0.000104427337646484,0.0000322173994667222
723,-0.000136375427246094,0.0000524900039263036
724,-0.000145912170410156,0.0000707231653166077
725,-0.000196933746337891,0.0000508776533272072
726,-0.000182628631591797,0.0000400741845787977
727,-0.000143051147460937,0.0000473931519617124
728,-0.000123500823974609,0.0000622322730890056
729,-0.0000863075256347656,0.0000548186481180946
730,-0.000171184539794922,0.00004299342152604
731,-0.000195503234863281,0.0000518449409706691
732,-0.000153541564941406,0.0000460610873249948
733,-0.000147342681884766,0.0000469145731973604
734,-0.000179290771484375,0.0000418171507209068
735,-0.000211715698242187,0.0000320404766604087
736,-0.000230312347412109,0.0000402200200639044
737,-0.000154495239257812,0.0000327372237552556
738,-0.000244617462158203,0.000035934829153079
739,-0.0001983642578125,0.0000477218475463745
740,-0.000164031982421875,0.0000431754916372858
741,-0.000298976898193359,0.0000579342429833624
742,-0.000239849090576172,0.0000573197139748159
743,-0.000240325927734375,0.0000415416580458131
744,-0.000267505645751953,0.0000476109426217472
745,-0.000216484069824219,0.0000590845303435482
746,-0.000226497650146484,0.0000572244324893959
747,-0.000217914581298828,0.0000528956213988142
748,-0.000181198120117187,0.0000388951250102316
749,-0.000151157379150391,0.0000401315908802937
750,-0.000207901000976562,0.0000385169623522965
751,-0.000200271606445312,0.0000397894823051422
752,-0.000135898590087891,0.0000388878170558973
753,-0.000162601470947266,0.0000445772614292997
754,-0.000140666961669922,0.0000473703578511843
755,-0.00009918212890625,0.0000433738376284288
756,-0.000116825103759766,0.0000367644232060329
757,-0.00014495849609375,0.0000429702778075221
758,-0.000164508819580078,0.0000546025394945087
759,-0.000194072723388672,0.0000446447940854852
760,-0.0000944137573242188,0.0000420192031485077
761,-0.0000963211059570313,0.0000407270298740085
762,-0.000107765197753906,0.0000495796006964233
763,-0.000133991241455078,0.000047317529332051
764,-0.000132560729980469,0.0000445594055257476
765,-0.000112533569335937,0.0000442907031428322
766,-0.0000810623168945313,0.000042637615106926
767,-0.000155925750732422,0.000050490728347584
768,-0.000130653381347656,0.0000424639486282488
769,-0.0000753402709960938,0.0000428676340020324
770,-0.000100612640380859,0.0000593571292081297
771,-0.000181198120117187,0.0000579724960367105
772,-0.000103950500488281,0.0000554270639286552
773,-0.0000619888305664063,0.0000528622972561477
774,-0.0000720024108886719,0.0000422875527069392
775,-0.0000844001770019531,0.0000438379094488571
776,-0.000144481658935547,0.0000366358677547209
777,-0.00006103515625,0.0000332625961810976
778,-0.0000867843627929688,0.0000356417834107854
779,-0.000138759613037109,0.0000438249408039416
780,-0.000118255615234375,0.0000418110332764605
781,-0.000072479248046875,0.0000521564823679936
782,-0.000102996826171875,0.0000256651814285238
783,-0.0000472068786621094,0.0000323485779874265
784,-0.0000872611999511719,0.0000594824492062334
785,-0.00022125244140625,0.0000563182837593207
786,-0.000168323516845703,0.0000460623213961099
787,-0.0001068115234375,0.0000496700922628174
788,-0.000152111053466797,0.0000504276430755702
789,-0.0000715255737304688,0.0000501858366761448
790,-0.0000658035278320313,0.0000475057619201271
791,-0.000185966491699219,0.0000484277376650945
792,-0.000127792358398437,0.0000498254902166244
793,-0.000128746032714844,0.0000395084836701915
794,-0.000117301940917969,0.0000461707904861723
795,-0.000147342681884766,0.0000486303773199947
796,-0.000112533569335937,0.0000409670836387624
797,-0.000153541564941406,0.0000543165455981293
798,-0.000133514404296875,0.000045685628525075
799,-0.000187397003173828,0.0000434772475071423
800,-0.000100135803222656,0.0000383979764885031
801,-0.0000743865966796875,0.0000409691648941242
802,-0.000216960906982422,0.0000606005438830491
803,-0.00009918212890625,0.0000471550724630669
804,-0.000201702117919922,0.0000568487091842232
805,-0.000104904174804687,0.0000524195656957539
806,-0.0000848770141601563,0.0000413860592121776
807,-0.000134468078613281,0.0000389382140226582
808,-0.000145912170410156,0.0000443778896507208
809,-0.0001678466796875,0.0000688530401143725
810,-0.000178337097167969,0.0000561939997202157
811,-0.0000743865966796875,0.0000351697710315433
812,-0.000149726867675781,0.0000431636409097037
813,-0.000166416168212891,0.0000348580682420675
814,-0.000155448913574219,0.0000426176127843939
815,-0.0000824928283691406,0.0000454436068904434
816,-0.000167369842529297,0.0000639175265507356
817,-0.0000886917114257813,0.0000493359422289653
818,-0.0000443458557128906,0.0000525992669415958
819,-0.000215053558349609,0.00005390369373697
820,-0.0000834465026855469,0.0000508318251466233
821,-0.0000987052917480469,0.0000378162231284433
822,-0.000143527984619141,0.0000429054089807715
823,-0.000183582305908203,0.0000363813002540304
824,-0.000125408172607422,0.0000387582382240805
825,-0.000213146209716797,0.0000506379958609249
826,-0.000159740447998047,0.0000414169512514212
827,-0.000164508819580078,0.0000298132876251014
828,-0.000217914581298828,0.0000418470453538229
829,-0.000199794769287109,0.000052754656547315
830,-0.000183582305908203,0.0000643394523999038
831,-0.000267505645751953,0.000068872851088776
832,-0.000270843505859375,0.0000520659451606512
833,-0.00020599365234375,0.0000434955476632426
834,-0.000180721282958984,0.0000472020618794161
835,-0.00023651123046875,0.0000423795311716174
836,-0.000223159790039062,0.0000501439107957186
837,-0.000212669372558594,0.0000510316018922497
838,-0.000244140625,0.0000527729709573606
839,-0.000199317932128906,0.0000412022900368175
840,-0.000256061553955078,0.0000580861254509381
841,-0.000288486480712891,0.000046152319460155
842,-0.000317573547363281,0.0000502876726273908
843,-0.000247955322265625,0.0000378109617408521
844,-0.000216484069824219,0.0000510661207030496
845,-0.000173091888427734,0.0000477730391252372
846,-0.000234127044677734,0.0000657291960022094
847,-0.000206470489501953,0.0000496781025529442
848,-0.000272274017333984,0.0000446562517512931
849,-0.000219345092773437,0.0000541960620283031
850,-0.000117301940917969,0.0000436625077355135
851,-0.000170707702636719,0.0000446511598183516
852,-0.000222206115722656,0.0000492759929383293
853,-0.000224113464355469,0.0000585597965590287
854,-0.000229358673095703,0.0000560734952617254
855,-0.000217437744140625,0.0000585180419957196
856,-0.000241279602050781,0.000049225209590194
857,-0.000226974487304687,0.0000458470930663544
858,-0.000256061553955078,0.0000454361011332049
859,-0.0002288818359375,0.0000385354054645822
860,-0.000130653381347656,0.0000535365189921764
861,-0.00022125244140625,0.0000437808186765214
862,-0.000173091888427734,0.0000413400216261457
863,-0.000181674957275391,0.000040018826606791
864,-0.000159263610839844,0.0000414718136144474
865,-0.000157833099365234,0.0000466253119122301
866,-0.000217914581298828,0.0000559008954172834
867,-0.000117778778076172,0.0000649146849872155
868,-0.000241279602050781,0.0000569765535210822
869,-0.000186920166015625,0.0000469400106719485
870,-0.000210285186767578,0.0000350296857386455
871,-0.000216960906982422,0.0000385833162979247
872,-0.000117301940917969,0.0000433777690889062
873,-0.000164508819580078,0.0000634981683722833
874,-0.000135898590087891,0.0000638961791992188
875,-0.000265598297119141,0.0000496746697296286
876,-0.000169754028320312,0.0000528870236302339
877,-0.0000700950622558594,0.000051320395258578
878,-0.000177383422851562,0.0000503396425574797
879,-0.000132560729980469,0.000046598482813101
880,-0.000207901000976562,0.0000605047920538015
881,-0.000107765197753906,0.0000679538959484782
882,-0.000145435333251953,0.0000464726678403289
883,-0.0000987052917480469,0.0000533354671252655
884,-0.0000276565551757812,0.0000610239793557357
885,-0.000111579895019531,0.0000614602218523365
886,-0.000145435333251953,0.0000724651297822714
887,-0.000159740447998047,0.0000715954756894053
888,-0.000134468078613281,0.0000671680613695573
889,-0.0000691413879394531,0.0000832569148453291
890,-0.000187397003173828,0.0000682760213686851
891,-0.0000476837158203125,0.0000671748313198209
892,-0.000186920166015625,0.0000646479352208719
893,-0.0000867843627929688,0.0000577573621217709
894,-0.000105857849121094,0.0000542453354745695
895,-0.000107765197753906,0.0000651733659630605
896,-0.000107288360595703,0.000064153650708264
897,-0.000176429748535156,0.0000648814012422358
898,-0.000134468078613281,0.0000684589380449032
899,-0.000091552734375,0.0000771577925042581
900,-0.0000987052917480469,0.00006687120512554
901,-0.000120162963867187,0.0000629605643055819
902,-0.000245571136474609,0.0000632955303422742
903,-0.0000753402709960938,0.0000674029184014403
904,-0.000153541564941406,0.000048750624022369
905,-0.000108242034912109,0.0000478229873015661
906,-0.000159263610839844,0.0000718142723029579
907,-0.000209331512451172,0.000053058714293699
908,-0.000226020812988281,0.0000642864209989651
909,-0.000174045562744141,0.0000685651377411602
910,-0.000211238861083984,0.0000640933709070827
911,-0.000223159790039062,0.0000593188107965908
912,-0.000261783599853516,0.0000610612277138129
913,-0.000188350677490234,0.000078930594240412
914,-0.000224590301513672,0.0000653197291765072
915,-0.000197887420654297,0.0000536658984831308
916,-0.00012969970703125,0.0000414766106185582
917,-0.000272750854492187,0.0000458805567452428
918,-0.000217914581298828,0.0000667060928883116
919,-0.000357627868652344,0.0000821600248086542
920,-0.000319480895996094,0.00006386770496465
921,-0.000298500061035156,0.0000528569204268345
922,-0.000303745269775391,0.0000669272844677839
923,-0.000368118286132812,0.0000497866862006741
924,-0.000380992889404297,0.0000651681326257603
925,-0.000432491302490234,0.0000694940059747188
926,-0.000345706939697266,0.0000419237225348153
927,-0.000362396240234375,0.0000398287495428688
928,-0.000485897064208984,0.0000645898768928415
929,-0.000509738922119141,0.000067769616129043
930,-0.000494956970214844,0.0000597332520619204
931,-0.000677108764648438,0.0000593935088007437
932,-0.000520706176757813,0.0000634462256564327
933,-0.000602245330810547,0.0000630471775268218
934,-0.000859260559082031,0.0000651890634541869
935,-0.000772953033447266,0.0000596513565130657
936,-0.000851631164550781,0.0000759564325169144
937,-0.000638961791992188,0.0000756790295309049
938,-0.000707149505615234,0.0000783566931282427
939,-0.000941276550292969,0.0000572492606474221
940,-0.00102329254150391,0.0000521564823679936
941,-0.000941753387451172,0.0000864983130710362
942,-0.00101232528686523,0.0000843462798879908
943,-0.000977516174316406,0.000061759156451171
944,-0.00118923187255859,0.0000666924571373743
945,-0.00110197067260742,0.0000882161630072407
946,-0.00132131576538086,0.000066808272309278
947,-0.00123167037963867,0.0000577248751719791
948,-0.0013432502746582,0.0000887147811911411
949,-0.00137996673583984,0.0000875616373530428
950,-0.00145483016967773,0.0000831544397125261
951,-0.00165319442749023,0.0000742182906114641
952,-0.00161504745483398,0.0000806179207054446
953,-0.00169563293457031,0.00010195621459192
954,-0.00182914733886719,0.0000932067239598894
955,-0.00197935104370117,0.000100710897693207
956,-0.00204706192016602,0.0000853098857318832
957,-0.00221347808837891,0.0000863351830274311
958,-0.00218296051025391,0.000104645931391034
959,-0.00226259231567383,0.0000696116927753245
960,-0.00238323211669922,0.000101773181197902
961,-0.0023040771484375,0.00010464810415888
962,-0.00230693817138672,0.0000891341178636857
963,-0.00218009948730469,0.000106188112859118
964,-0.00217103958129883,0.000107739875991797
965,-0.00216579437255859,0.0000699148001118404
966,-0.00248289108276367,0.0000858810065382769
967,-0.00214385986328125,0.00010844455376493
968,-0.00214099884033203,0.000134920481973588
969,-0.00195550918579102,0.000151306974832716
970,-0.00205612182617187,0.000124945894514115
971,-0.00219202041625977,0.000113103924457939
972,-0.00202560424804687,0.000129352131905572
973,-0.00201082229614258,0.000104040142219965
974,-0.00190591812133789,0.000121686002644368
975,-0.00165128707885742,0.000109402697751617
976,-0.00172710418701172,0.000137355589961157
977,-0.00191926956176758,0.000198799353044322
978,-0.00167131423950195,0.000184436766496572
979,-0.00158405303955078,0.000168474065223492
980,-0.00135707855224609,0.000213806039906526
981,-0.00136375427246094,0.000169190532369873
982,-0.00125455856323242,0.000162720985901374
983,-0.00135564804077148,0.000143875291180772
984,-0.000958442687988281,0.000135364654753814
985,-0.00123023986816406,0.000149136490946572
986,-0.000869274139404297,0.000178813298542164
987,-0.00125551223754883,0.000176246651157838
988,-0.00111007690429687,0.000202798792930756
989,-0.000873088836669922,0.000146014981419582
990,-0.000562191009521484,0.000105395035652082
991,-0.000697612762451172,0.000189005642498411
992,-0.000723838806152344,0.000202673182021876
993,-0.000761985778808594,0.000184717631079746
994,-0.000706195831298828,0.000166743074918266
995,-0.000387191772460937,0.000152870750511847
996,-0.000413417816162109,0.000158010912765766
997,-0.000616550445556641,0.000190042191650704
998,-0.000329971313476562,0.000203380970192968
999,-0.000215530395507812,0.000281267643249302
1000,0.0000219345092773437,0.000194072137592753
1001,-0.000292301177978516,0.000198799353044322
1002,-0.0000653266906738281,0.000197270016220053
1003,-0.000272750854492187,0.000243928191030452
1004,-0.000527381896972656,0.000262522133393635
1005,-0.0000901222229003906,0.000163576691879251
1006,-0.0000743865966796875,0.000216905880332262
1007,-0.000159263610839844,0.000232817665215213
1008,-0.0000844001770019531,0.000182069390316494
1009,-0.0000514984130859375,0.000204997834598612
1010,0.000329017639160156,0.000200380568154378
1011,0.000354766845703125,0.000216998107571452
1012,0.0000872611999511719,0.000183576732402268
1013,0.000151157379150391,0.000257386079804523
1014,-0.000178337097167969,0.000235258136058436
1015,0.000126838684082031,0.000261522468582193
1016,0.000332355499267578,0.000288829520695894
1017,0.000577926635742188,0.000305157899332668
1018,0.0000247955322265625,0.000277858212482734
1019,0.0000243186950683594,0.000272317021142193
1020,0.000338554382324219,0.000276229917821987
1021,0.000509738922119141,0.000265601293385999
1022,0.000697135925292969,0.000279392396574722
1023,0.000317573547363281,0.000315197657419702
1024,0.0000185966491699219,0.000317308527249222
1025,0.000176906585693359,0.000280068672042598
1026,0.000378131866455078,0.000202686644056986
1027,0.000833511352539063,0.000234917686678074
1028,0.000323295593261719,0.00028080162511087
1029,0.000480175018310547,0.000388968202594158
1030,0.000126838684082031,0.000254950519407801
1031,0.000799655914306641,0.000334569828160587
1032,0.00103664398193359,0.00037013376759958
1033,0.000456333160400391,0.000315964261308476
1034,-0.000125408172607422,0.000373898715695735
1035,-0.000411510467529297,0.000309901601364714
1036,0.000398159027099609,0.000272844205233532
1037,0.000334739685058594,0.000291524995347688
1038,0.00129365921020508,0.000413485733753998
1039,0.0000429153442382813,0.000322556283311945
1040,-0.000159263610839844,0.000481944389860052
1041,0.000565528869628906,0.000512136427210645
1042,0.00120878219604492,0.000569374716208541
1043,0.000270366668701172,0.000326229109710738
1044,-0.000236034393310547,0.000344945463578735
1045,-0.000468730926513672,0.000460102148206968
1046,-0.000583171844482422,0.00052789125454323
1047,0.000574588775634766,0.00048274387248797
1048,0.000823497772216797,0.00065392857477005
1049,0.000584125518798828,0.000557950824428508
1050,0.000496387481689453,0.000537398650558567
1051,0.000634193420410156,0.00048003838763041
1052,0.000313282012939453,0.000473967500297134
1053,0.000751495361328125,0.000586074574649311
1054,-0.000399589538574219,0.000745926960681698
1055,-0.000202178955078125,0.000734326746552488
1056,-0.00105667114257812,0.000681177193519943
1057,0.000831127166748047,0.000591868444244559
1058,0.000728607177734375,0.000766801595406133
1059,0.00105524063110352,0.000789264459541875
1060,0.000298976898193359,0.00076253880471428
1061,-0.00125837326049805,0.000632480948035437
1062,0.000750064849853516,0.000654595826303904
1063,0.000443458557128906,0.000669183149311557
1064,-0.000343799591064453,0.000827973868191721
1065,-0.000145912170410156,0.000968527521266682
1066,-0.000275611877441406,0.000948778939493691
1067,0.0002899169921875,0.00101100273275619
1068,-0.0000262260437011719,0.000917955991980994
1069,-0.000968456268310547,0.000901092540149131
1070,-0.00030517578125,0.000949560830794988
1071,-0.00217914581298828,0.00114163380096835
1072,0.000367164611816406,0.000949897918541837
1073,0.00144338607788086,0.000994487992175232
1074,0.00060272216796875,0.000742505124791679
1075,-0.000711441040039063,0.000873557344755087
1076,-0.00190496444702148,0.00130636534335612
1077,-0.00181913375854492,0.0012499640131777
1078,0.00239181518554687,0.0012436615157641
1079,-0.0000600814819335938,0.00123993505785884
1080,-0.00155735015869141,0.00131869400157498
1081,-0.00214481353759766,0.00100823538431896
1082,-0.00171279907226562,0.00133200139350655
1083,0.00144815444946289,0.000933424540272666
1084,-0.0000734329223632813,0.00104146125874252
1085,-0.00134372711181641,0.000931911101355131
1086,-0.000543117523193359,0.00103470455067203
1087,-0.00135087966918945,0.00119815505720622
1088,-0.00061798095703125,0.00138989058936168
1089,0.00100088119506836,0.0018996119947688
1090,-0.00165796279907227,0.00162472072136283
1091,-0.000302314758300781,0.00130073905137493
1092,0.00124931335449219,0.00159875414183425
1093,-0.00414800643920898,0.00167186479030593
1094,0.00124979019165039,0.0014513105862684
1095,-0.00160789489746094,0.0020129460229992
1096,0.00100517272949219,0.00191863724854114
1097,-0.00346040725708008,0.00202240844466876
1098,0.000578403472900391,0.00251520206319876
1099,-0.0000295639038085937,0.00226134018373396
1100,-0.000487804412841797,0.0036229262627527
