Wavelength (nm),Absorbance (AU),Std.Dev.
190,0.257408618927002,0.0000662306043053423
191,0.250671863555908,0.0000766715006042618
192,0.245468616485596,0.0000670189494449563
193,0.240822792053223,0.0000645282427964059
194,0.237122058868408,0.0000423043520150549
195,0.233884334564209,0.0000449328894140826
196,0.231083869934082,0.0000521292286731713
197,0.22846794128418,0.0000618492903407706
198,0.225886821746826,0.0000596951750846252
199,0.223323345184326,0.0000552256896340625
200,0.220631122589111,0.0000554311659908225
201,0.217799186706543,0.0000511439807044675
202,0.214815616607666,0.0000520495662124682
203,0.211496353149414,0.0000491951766072423
204,0.207943439483643,0.0000565067122052709
205,0.203890800476074,0.0000585859993313531
206,0.19920015335083,0.0000779391757278802
207,0.193970680236816,0.0000577908144236428
208,0.188270092010498,0.0000636698143508946
209,0.182103633880615,0.0000607317221573898
210,0.175500392913818,0.0000565760807767037
211,0.168204307556152,0.0000625093322032154
212,0.160520553588867,0.0000593571292081297
213,0.152640342712402,0.0000589689690039691
214,0.144526481628418,0.0000654970162265997
215,0.136215686798096,0.0000525981862420704
216,0.127857685089111,0.0000438534667603242
217,0.119513034820557,0.0000513259330522621
218,0.111318588256836,0.0000564785383379661
219,0.103340148925781,0.0000534834041915208
220,0.0957484245300293,0.0000438884505481492
221,0.0884151458740234,0.0000422014354771017
222,0.0815224647521973,0.0000437665343472785
223,0.0750937461853027,0.0000572750705146422
224,0.069180965423584,0.0000511628716799615
225,0.0636916160583496,0.0000414059700557882
226,0.0587267875671387,0.0000469581718601615
227,0.0542874336242676,0.0000461190529709112
228,0.0502257347106934,0.0000340629984849663
229,0.046750545501709,0.0000443753277866892
230,0.0435028076171875,0.0000468163277546951
231,0.0407066345214844,0.0000438392061023454
232,0.0382332801818848,0.0000558541002426757
233,0.0360312461853027,0.0000560258296635919
234,0.0341405868530273,0.0000502469630139141
235,0.0324692726135254,0.0000454423560169962
236,0.0310530662536621,0.0000467665199056809
237,0.0297317504882812,0.0000382563394146542
238,0.0286068916320801,0.0000449328894140826
239,0.0276942253112793,0.0000428291621052557
240,0.0268783569335937,0.000043680730276426
241,0.0261292457580566,0.0000386142424519484
242,0.0254864692687988,0.0000316091248426214
243,0.0249271392822266,0.0000353390706212253
244,0.0243492126464844,0.0000487820959696164
245,0.0238990783691406,0.0000365558741380744
246,0.023503303527832,0.0000338134370770895
247,0.023162841796875,0.0000440203606182974
248,0.0228185653686523,0.0000450049408492924
249,0.0225396156311035,0.0000483913368630155
250,0.0222291946411133,0.00003645388108457
251,0.021914005279541,0.0000401358399326143
252,0.0216922760009766,0.0000478930646113957
253,0.0214285850524902,0.000046695969285374
254,0.0211925506591797,0.0000541845234745193
255,0.0209994316101074,0.0000615212337443589
256,0.0208473205566406,0.0000429801980700245
257,0.0206561088562012,0.0000387142147680012
258,0.0204029083251953,0.0000401315908802937
259,0.0202760696411133,0.0000451675802198258
260,0.0200686454772949,0.0000556624414522684
261,0.0199484825134277,0.0000550607564561398
262,0.0198073387145996,0.0000455685208338532
263,0.0196132659912109,0.0000396578329342494
264,0.0195002555847168,0.0000516527124907384
265,0.019287109375,0.000058432497784138
266,0.0191888809204102,0.000050906693723559
267,0.0189967155456543,0.000057900873547579
268,0.0188426971435547,0.0000528698238985281
269,0.0185461044311523,0.0000669833168596577
270,0.0183706283569336,0.0000560694401926384
271,0.0182366371154785,0.0000493244191779547
272,0.0180268287658691,0.0000598539859180954
273,0.0178918838500977,0.0000511139630402541
274,0.0177502632141113,0.0000389776096739245
275,0.0175175666809082,0.0000451184720069647
276,0.0172548294067383,0.0000445211187603858
277,0.0172276496887207,0.0000367775631573508
278,0.0170111656188965,0.0000461954070322197
279,0.0167379379272461,0.0000394566541379247
280,0.0166158676147461,0.0000293559985631434
281,0.0163636207580566,0.0000396678650913417
282,0.0161747932434082,0.0000467069237805284
283,0.0159430503845215,0.0000405388712556827
284,0.0156292915344238,0.0000422801588967531
285,0.0155458450317383,0.0000509647248734432
286,0.0152502059936523,0.0000625511487266792
287,0.0150260925292969,0.0000551412230084229
288,0.0148453712463379,0.0000343248240014129
289,0.0145220756530762,0.0000334058377993336
290,0.0142898559570312,0.0000474925979537534
291,0.0141201019287109,0.0000451751305912969
292,0.0138311386108398,0.0000350434761556113
293,0.0136213302612305,0.0000276791546006371
294,0.0134778022766113,0.0000387200874541085
295,0.01324462890625,0.000042608942195217
296,0.0130095481872559,0.0000398843713353954
297,0.0128688812255859,0.0000535927632073483
298,0.0126557350158691,0.0000417007658177861
299,0.0124621391296387,0.0000328663275802444
300,0.0122385025024414,0.0000412464141845703
301,0.0121426582336426,0.0000499223682985219
302,0.0119051933288574,0.0000499451358321078
303,0.0117435455322266,0.0000546857592638807
304,0.011634349822998,0.0000397136941081031
305,0.011472225189209,0.0000347388224097328
306,0.0113463401794434,0.0000505705983210378
307,0.0111479759216309,0.0000434863985478375
308,0.0109477043151855,0.0000523294836607487
309,0.0108389854431152,0.0000421090680013705
310,0.0107712745666504,0.0000417089437748808
311,0.0105504989624023,0.0000369840937167267
312,0.0104227066040039,0.0000335255860669841
313,0.0102462768554687,0.0000451625459375743
314,0.0101518630981445,0.0000469073028137854
315,0.0100631713867187,0.0000439622137894291
316,0.00987863540649414,0.0000506424858410597
317,0.00973272323608398,0.0000506155399858247
318,0.00954055786132813,0.0000526413969178667
319,0.00953865051269531,0.0000510995038017991
320,0.00925159454345703,0.0000364562199958327
321,0.00916624069213867,0.0000512816139583811
322,0.00907087326049805,0.0000639495342166147
323,0.00901508331298828,0.0000480435621729069
324,0.00890779495239258,0.0000547833809563899
325,0.00869178771972656,0.0000600436257884872
326,0.00854206085205078,0.0000583049210749124
327,0.00853204727172852,0.0000620328306882836
328,0.00836181640625,0.0000440797203201216
329,0.00826454162597656,0.0000450503876454608
330,0.00810098648071289,0.0000359150506165515
331,0.00797700881958008,0.0000431234558915601
332,0.00785303115844727,0.000052792355760521
333,0.00774812698364258,0.0000682910056816865
334,0.00765085220336914,0.0000612564099979721
335,0.00755453109741211,0.0000413159517425179
336,0.0074000358581543,0.000038477833718241
337,0.00722694396972656,0.0000337157928926258
338,0.00718116760253906,0.0000299843948481868
339,0.0070796012878418,0.0000361304458059744
340,0.00696992874145508,0.0000424565855374061
341,0.00689697265625,0.0000509658402095313
342,0.0068364143371582,0.0000489774670223573
343,0.00668907165527344,0.0000517889937682551
344,0.00652027130126953,0.0000518317823559976
345,0.00644922256469727,0.0000630273391764932
346,0.00637674331665039,0.0000689685239096243
347,0.00626802444458008,0.000047948815618785
348,0.00619173049926758,0.0000445823618024776
349,0.00607919692993164,0.0000529074410492667
350,0.00591278076171875,0.000046787178375381
351,0.00592994689941406,0.0000384608409816375
352,0.00582742691040039,0.0000380290712831207
353,0.00574159622192383,0.0000370600956085497
354,0.00567436218261719,0.0000557267409705938
355,0.00552272796630859,0.0000420989424648783
356,0.00538444519042969,0.000044119678551294
357,0.0053553581237793,0.0000505233665481967
358,0.00522184371948242,0.0000364803799647048
359,0.00506734848022461,0.000039287012514666
360,0.00497722625732422,0.000057650973112268
361,0.00494384765625,0.000059892911021507
362,0.00480270385742188,0.0000701534261812548
363,0.00464868545532227,0.0000630471775268218
364,0.00455331802368164,0.0000604474562274769
365,0.00453329086303711,0.0000548756499512322
366,0.00458049774169922,0.0000531636010123195
367,0.00446224212646484,0.0000626746170068655
368,0.0043025016784668,0.0000728047740325635
369,0.00418472290039063,0.000069503820819196
370,0.00421810150146484,0.0000528095807230938
371,0.00432634353637695,0.0000780863615131423
372,0.00415420532226563,0.0000829477390825826
373,0.00414752960205078,0.0000680425071508619
374,0.00414848327636719,0.0000476956352595239
375,0.00402545928955078,0.0000461030272112725
376,0.00388288497924805,0.0000466253119122301
377,0.00394916534423828,0.0000630940433770107
378,0.00394821166992187,0.0000652413611468776
379,0.00376224517822266,0.0000738374294635033
380,0.0036616325378418,0.0000715096773920725
381,0.00356435775756836,0.0000935767865908514
382,0.00364494323730469,0.0000713521125605221
383,0.00363922119140625,0.0000924351014269243
384,0.00362157821655273,0.0000759669089566284
385,0.00358867645263672,0.0000534919061037776
386,0.00324296951293945,0.0000708243648326841
387,0.00329971313476562,0.00010590079871069
388,0.00322866439819336,0.0000799310509519259
389,0.00327157974243164,0.0000588328943812245
390,0.0033879280090332,0.0000520222565058752
391,0.00339174270629883,0.0000423372593224675
392,0.00315284729003906,0.0000700804636797861
393,0.00289821624755859,0.0000766922566910475
394,0.002899169921875,0.000100219782174126
395,0.0029754638671875,0.0000784263048626854
396,0.00298023223876953,0.0000687373622981735
397,0.00295019149780273,0.0000560542310709016
398,0.00287580490112305,0.0000555684100848388
399,0.00254154205322266,0.0000512838308227054
400,0.00276708602905273,0.0000689668755026424
401,0.00276565551757812,0.0000767041147903362
402,0.00273895263671875,0.0000826277759142404
403,0.00276756286621094,0.0000872234095890005
404,0.00257015228271484,0.0000671917532112447
405,0.0025787353515625,0.0000628973336401218
406,0.00226306915283203,0.0000759504453311157
407,0.00252199172973633,0.0000665200653773036
408,0.00256109237670898,0.0000679689512767086
409,0.0025181770324707,0.0000687654733728555
410,0.0023345947265625,0.0000857498530037147
411,0.00230169296264648,0.0000568417094046997
412,0.00238895416259766,0.0000593877661361134
413,0.00228786468505859,0.0000820603361675223
414,0.00225543975830078,0.0000570264148708897
415,0.00212430953979492,0.0000477468549417819
416,0.00212907791137695,0.0000669884083894193
417,0.00207901000976562,0.0000603580542660976
418,0.00212478637695312,0.0000839016626278792
419,0.00211524963378906,0.0000807616323124078
420,0.00221014022827148,0.000067769616129043
421,0.00221776962280273,0.0000474806275445012
422,0.00188875198364258,0.0000457005568432575
423,0.00192070007324219,0.0000525181527661068
424,0.00180625915527344,0.0000593848945955495
425,0.00182104110717773,0.0000623381383023288
426,0.00194644927978516,0.0000831872454894064
427,0.00205421447753906,0.0000702570645572182
428,0.00188779830932617,0.0000736894708688783
429,0.00189638137817383,0.0000763371464487283
430,0.00168895721435547,0.0000665405709466492
431,0.00156068801879883,0.0000594719363091298
432,0.00171899795532227,0.0000611672610913582
433,0.00188589096069336,0.0000619282793536281
434,0.00143861770629883,0.0000633816858227282
435,0.00148582458496094,0.0000526046701061974
436,0.00149154663085937,0.0000767767056851607
437,0.00145149230957031,0.0000711670472936597
438,0.00171709060668945,0.0000632488137892579
439,0.00148296356201172,0.0000484899079990719
440,0.00150775909423828,0.0000708420197649885
441,0.001495361328125,0.0000753644107823576
442,0.00129842758178711,0.0000598587342371368
443,0.00142765045166016,0.0000563959481886769
444,0.00134944915771484,0.0000570861910035179
445,0.00139379501342773,0.0000608532773571498
446,0.00140762329101562,0.0000584373616060984
447,0.00123500823974609,0.0000546971920804171
448,0.00116395950317383,0.0000592996423055595
449,0.00131940841674805,0.0000527729709573606
450,0.00122356414794922,0.000047540449449976
451,0.00117969512939453,0.0000597046966055542
452,0.00116395950317383,0.0000698708822431894
453,0.0011754035949707,0.0000618768560997453
454,0.00121927261352539,0.0000586238271040407
455,0.00121450424194336,0.0000536129118600698
456,0.0011134147644043,0.0000624074008965854
457,0.00110483169555664,0.0000634981683722833
458,0.00119781494140625,0.0000525938632219068
459,0.00101518630981445,0.0000530758528137224
460,0.00100374221801758,0.0000621591575458262
461,0.00103139877319336,0.000054074258813228
462,0.000933170318603516,0.0000431412473201758
463,0.00119543075561523,0.0000349907187528771
464,0.00107145309448242,0.0000438456887945956
465,0.000912189483642578,0.0000667606080412561
466,0.000689983367919922,0.0000942812095158824
467,0.000879764556884766,0.0000769423705607998
468,0.000830173492431641,0.0000671511335078581
469,0.000969886779785156,0.0000800362327840471
470,0.000833511352539063,0.0000649777021700935
471,0.000820159912109375,0.0000706861833590202
472,0.000885963439941406,0.000064515908911398
473,0.000810623168945313,0.000072901524605526
474,0.000785350799560547,0.000070513881857352
475,0.000840663909912109,0.000059386808971353
476,0.000678062438964844,0.0000545483785614922
477,0.000715732574462891,0.0000586655063759487
478,0.000704288482666016,0.000086915263290897
479,0.000737190246582031,0.0000832801250121835
480,0.000703334808349609,0.0000727313450940294
481,0.000685691833496094,0.0000766062305768259
482,0.000600337982177734,0.0000565811041801122
483,0.000614166259765625,0.0000574831100270225
484,0.000623226165771484,0.0000466411582167845
485,0.00235795974731445,0.0000742994311289544
486,-0.000253200531005859,0.0000593025179742013
487,0.000480175018310547,0.0000604681409901331
488,0.000438690185546875,0.000063320671133256
489,0.000652313232421875,0.0000688530401143725
490,0.000545501708984375,0.0000758500897147795
491,0.000540733337402344,0.0000610630895352795
492,0.000624656677246094,0.0000740403897540817
493,0.000666618347167969,0.000077507676257811
494,0.000545501708984375,0.0000496506333207898
495,0.000531673431396484,0.0000546576867572039
496,0.000424861907958984,0.0000674315857852517
497,0.000414848327636719,0.0000589612568615129
498,0.0006561279296875,0.0000689833577999173
499,0.000597953796386719,0.0000601788518968423
500,0.000351428985595703,0.0000710087221869899
501,0.000546455383300781,0.000082455610137234
502,0.000399589538574219,0.0000657430315432776
503,0.000519752502441406,0.0000864404634555802
504,0.000446319580078125,0.0000589949900416091
505,0.000583648681640625,0.0000660742154110475
506,0.000467300415039063,0.0000508463605052247
507,0.000451087951660156,0.0000445504748902183
508,0.000459671020507813,0.0000695594121124667
509,0.000445842742919922,0.000100140344425952
510,0.000482559204101563,0.0000667214297771192
511,0.000508308410644531,0.0000592430591220755
512,0.000404834747314453,0.0000517505636317916
513,0.000483512878417969,0.000057402955538224
514,0.000377178192138672,0.0000836682778569407
515,0.000360965728759766,0.0000724682674121048
516,0.000446319580078125,0.0000590248519013722
517,0.000418186187744141,0.0000586625994807025
518,0.000380039215087891,0.0000631660767871318
519,0.0002288818359375,0.0000432964463575445
520,0.000320911407470703,0.0000521641108509182
521,0.000309467315673828,0.0000700820858939662
522,0.000297069549560547,0.0000713074856094155
523,0.000395298004150391,0.0000611616849701842
524,0.000309944152832031,0.0000638837232832478
525,0.000303745269775391,0.0000786564537009542
526,0.000291347503662109,0.0000646285882399745
527,0.000248432159423828,0.0000548456018225367
528,0.000485897064208984,0.0000485882791640852
529,0.000300884246826172,0.0000580528433189933
530,0.000344276428222656,0.0000508575387234232
531,0.000217437744140625,0.0000541467437433015
532,0.000291347503662109,0.0000674332717224161
533,0.000329017639160156,0.0000521684694831827
534,0.000454902648925781,0.0000406110201155731
535,0.000310420989990234,0.0000445696097751573
536,0.000212192535400391,0.0000380544733099533
537,0.0002593994140625,0.0000361996040723957
538,0.000224590301513672,0.0000541204923024515
539,0.000310420989990234,0.0000458123641736459
540,0.000244140625,0.0000476336216054166
541,0.000178337097167969,0.0000629172129823522
542,0.000307559967041016,0.0000534344919446081
543,0.000236034393310547,0.0000519894659217752
544,0.000230789184570312,0.0000577238904335358
545,0.000207901000976562,0.0000524575057265566
546,0.000336647033691406,0.0000498825001098883
547,0.000216007232666016,0.0000597427675143204
548,0.000211715698242187,0.0000476539041788737
549,0.000107288360595703,0.0000547345918742437
550,0.000165939331054687,0.0000411104430719196
551,0.000204086303710937,0.0000526662270030044
552,0.000355720520019531,0.0000534217248628845
553,0.000243663787841797,0.0000432504708398818
554,0.000246524810791016,0.0000427002283761958
555,0.000230312347412109,0.0000536404714361869
556,0.000140666961669922,0.000054303985891102
557,0.000206947326660156,0.000055501878841215
558,0.000254154205322266,0.0000489774670223573
559,0.000288963317871094,0.0000495463408025543
560,0.000224113464355469,0.0000415813211849888
561,0.000150203704833984,0.0000390999200799878
562,0.000174999237060547,0.0000478954383166786
563,0.000194072723388672,0.0000399534340007115
564,0.000216960906982422,0.0000306003535746581
565,0.000180244445800781,0.000038408337718205
566,0.000225067138671875,0.0000473739576504056
567,0.000236034393310547,0.0000571120745645865
568,0.000172138214111328,0.0000581897652057526
569,0.000232696533203125,0.0000593772364751237
570,0.000225067138671875,0.0000535588115009269
571,0.000201225280761719,0.0000496826792817349
572,-0.0000224113464355469,0.0000438560591090251
573,0.000290870666503906,0.0000589217162881625
574,0.000154972076416016,0.0000490540070454568
575,0.0000104904174804687,0.0000497021256774094
576,0.000221729278564453,0.0000427926481840156
577,0.000219821929931641,0.0000341263529493006
578,-0.0000433921813964844,0.0000408656677751836
579,0.000049591064453125,0.0000430535369700573
580,0.000235080718994141,0.0000450642650247536
581,0.000265598297119141,0.0000409858111323248
582,-0.0000696182250976563,0.0000434445494838451
583,-0.0000834465026855469,0.000056980544034711
584,0.000257968902587891,0.0000538519966523128
585,0.000161647796630859,0.0000253341477527345
586,-0.000041961669921875,0.0000272939814955664
587,0.000240325927734375,0.0000490493716561674
588,0.0000562667846679688,0.0000532480021482225
589,0.0000166893005371094,0.0000486268705323702
590,0.000118255615234375,0.0000404061465190647
591,0.0000376701354980469,0.0000444572342121088
592,0.000295639038085937,0.000048096775088975
593,0.0000863075256347656,0.0000356433782284881
594,0.0000481605529785156,0.0000583799426863056
595,0.0000939369201660156,0.0000521782750745678
596,-0.0000510215759277344,0.0000479013720652694
597,0.000142097473144531,0.0000522697052232541
598,0.0000820159912109375,0.0000452694039807225
599,0.0000414848327636719,0.0000336575770737741
600,0.0000791549682617188,0.0000347355496392314
601,-0.0000100135803222656,0.0000394098050430836
602,-0.0000276565551757812,0.000048406605048074
603,0.0000414848327636719,0.0000460215795769083
604,-0.0000414848327636719,0.0000463084746017707
605,0.000117301940917969,0.0000469278993084649
606,-0.000049591064453125,0.0000365543191314106
607,-0.0000290870666503906,0.000036558983952979
608,-0.0000696182250976563,0.00003586199034808
609,-0.0000448226928710938,0.0000503260903584032
610,0.00000905990600585938,0.0000537452804702964
611,-0.0000653266906738281,0.0000439647997259503
612,-0.0000309944152832031,0.0000385671069867933
613,-0.0000109672546386719,0.0000274481816079162
614,-0.00006103515625,0.0000372108699176789
615,-0.0000767707824707031,0.0000453822735455684
616,-0.000126838684082031,0.0000422882248073979
617,-0.0000791549682617188,0.000042405008103322
618,-0.000101089477539062,0.0000476061667221844
619,-0.0000200271606445312,0.0000406390045594367
620,-0.0000538825988769531,0.0000479001853743559
621,-0.000123023986816406,0.000055082432091498
622,0.0000410079956054688,0.0000331701856411718
623,-0.0000557899475097656,0.0000281434930029394
624,-0.000100135803222656,0.0000381223778116512
625,-0.000157833099365234,0.0000420036431110655
626,-0.000188350677490234,0.0000385420428245506
627,-0.0000720024108886719,0.0000459931624210176
628,-0.000117301940917969,0.0000398729680625601
629,-0.000107288360595703,0.0000313925843598425
630,-0.000193595886230469,0.0000408726220947505
631,-0.000154018402099609,0.0000330543091581656
632,-0.0000858306884765625,0.0000369241032575807
633,-0.000139236450195312,0.0000525116582192735
634,-0.000158786773681641,0.0000541719331583069
635,-0.000112056732177734,0.0000430442939048608
636,-0.000113487243652344,0.0000528364834852964
637,-0.000155448913574219,0.0000425495345534676
638,-0.000194072723388672,0.0000491003368697669
639,-0.000176429748535156,0.0000624110441670223
640,-0.000232219696044922,0.0000582834685920621
641,-0.000164985656738281,0.0000493693438675635
642,-0.000113487243652344,0.0000580587180227562
643,-0.000133514404296875,0.0000414642743438734
644,-0.000116348266601562,0.0000558011540952097
645,-0.000146389007568359,0.0000392385122458006
646,-0.000214099884033203,0.0000571051070676418
647,-0.000242233276367187,0.000055255531070217
648,-0.0000667572021484375,0.0000479262857868991
649,-0.000142574310302734,0.0000367102679689489
650,-0.000176429748535156,0.0000444879102441957
651,-0.000179767608642578,0.000047103209285303
652,-0.000182151794433594,0.0000562395013513907
653,-0.000133514404296875,0.0000474243261485783
654,-0.000256538391113281,0.0000536944895182009
655,0.000989913940429688,0.0000520604860838172
656,0.0000519752502441406,0.0000405620008814559
657,-0.00211524963378906,0.0000437860118226967
658,-0.000191688537597656,0.0000435778032638392
659,-0.000318527221679687,0.0000355499610623183
660,-0.000266075134277344,0.0000446689790442101
661,-0.000211715698242187,0.0000296196105088793
662,-0.000201225280761719,0.0000350815743910583
663,-0.000257015228271484,0.0000482690175191789
664,-0.000218868255615234,0.000051565700300402
665,-0.000240325927734375,0.0000536997824838126
666,-0.000313758850097656,0.0000641997088370303
667,-0.000238895416259766,0.0000517219970460088
668,-0.000224113464355469,0.0000280757491323531
669,-0.000230789184570312,0.0000291851025339946
670,-0.0002593994140625,0.0000345048606436778
671,-0.000300407409667969,0.0000358960529687708
672,-0.000272750854492187,0.0000395135190264018
673,-0.000346183776855469,0.0000422633499720878
674,-0.000261306762695312,0.0000481121367520694
675,-0.000290393829345703,0.0000609400873072423
676,-0.000257492065429687,0.0000500383744138523
677,-0.000267505645751953,0.0000508217597707655
678,-0.0002899169921875,0.0000469400106719485
679,-0.000242233276367187,0.0000502842814184161
680,-0.000229835510253906,0.0000445313317831181
681,-0.000275611877441406,0.0000507893133238033
682,-0.000330924987792969,0.0000478978119043262
683,-0.000294685363769531,0.000049241373609259
684,-0.000212192535400391,0.0000533162797876154
685,-0.000216007232666016,0.0000424974011446064
686,-0.000253200531005859,0.0000384985104046469
687,-0.000256538391113281,0.0000377176383649539
688,-0.000339508056640625,0.000042627615118881
689,-0.000303745269775391,0.0000460092264483602
690,-0.000302314758300781,0.0000593293508268604
691,-0.000291347503662109,0.0000460487447948756
692,-0.000290393829345703,0.0000364460836296489
693,-0.000214099884033203,0.0000351794672420933
694,-0.000291824340820312,0.0000441930558483982
695,-0.000288486480712891,0.0000416202636508259
696,-0.000319004058837891,0.0000470826894806763
697,-0.000235557556152344,0.0000453584689142842
698,-0.000214099884033203,0.0000350134547648621
699,-0.000250339508056641,0.0000457912659241638
700,-0.000249862670898437,0.0000488542881549574
701,-0.000334262847900391,0.0000417123507837963
702,-0.000247001647949219,0.0000450768771167485
703,-0.000245571136474609,0.0000469024552652979
704,-0.000240802764892578,0.0000374150087035286
705,-0.000322341918945312,0.0000426129442248305
706,-0.000298023223876953,0.0000466289692297171
707,-0.000251293182373047,0.0000546888775417843
708,-0.000264644622802734,0.0000427255140787795
709,-0.000337123870849609,0.0000364437440678476
710,-0.000271797180175781,0.0000430482554615306
711,-0.000262737274169922,0.0000441647492327282
712,-0.000287532806396484,0.0000360871545858234
713,-0.000261306762695312,0.0000421569625409986
714,-0.000344276428222656,0.0000432162859358681
715,-0.000368118286132812,0.0000562384906039925
716,-0.000317096710205078,0.0000330852492359145
717,-0.000335693359375,0.0000328256583776392
718,-0.000268459320068359,0.0000351536047374087
719,-0.000320911407470703,0.0000466886648606947
720,-0.000380039215087891,0.0000414334175879237
721,-0.000318050384521484,0.000060201517420472
722,-0.000303745269775391,0.0000528450894766371
723,-0.000340938568115234,0.0000419941689611511
724,-0.000398635864257812,0.0000552328942155111
725,-0.000266551971435547,0.0000567506337040888
726,-0.0003509521484375,0.0000410481744036452
727,-0.000347614288330078,0.0000454486100399566
728,-0.000345706939697266,0.0000531742921060009
729,-0.000319957733154297,0.0000416946312973276
730,-0.000352382659912109,0.0000507355632637781
731,-0.000390529632568359,0.0000400989998543065
732,-0.000319004058837891,0.0000431912875493889
733,-0.000313282012939453,0.0000436221307341172
734,-0.000345230102539062,0.0000459684375711387
735,-0.000380039215087891,0.0000617020649704812
736,-0.000359535217285156,0.000045494863089801
737,-0.000387191772460937,0.0000324914754217614
738,-0.000359535217285156,0.0000387186193660891
739,-0.000333786010742187,0.0000425588850721067
740,-0.000425338745117188,0.0000347019859455654
741,-0.000378608703613281,0.0000402186067275229
742,-0.000400543212890625,0.0000550359738481751
743,-0.000474929809570313,0.0000609344903973766
744,-0.000386714935302734,0.0000456993130029991
745,-0.000376701354980469,0.0000466703987974009
746,-0.000391006469726562,0.0000534589536620947
747,-0.000328540802001953,0.0000508418885297978
748,-0.000382900238037109,0.0000469787460527602
749,-0.00032806396484375,0.0000502209368177661
750,-0.000306606292724609,0.0000432662393781125
751,-0.000394821166992187,0.0000492298284229126
752,-0.000413894653320313,0.0000570214306979246
753,-0.000395774841308594,0.0000472814760446188
754,-0.000333786010742187,0.0000357222327130637
755,-0.000325679779052734,0.0000383364916841146
756,-0.000314235687255859,0.0000521935245551147
757,-0.000391960144042969,0.0000529171097086861
758,-0.000503063201904297,0.0000673776135218484
759,-0.000441551208496094,0.0000559069962480582
760,-0.000320911407470703,0.0000457676740180313
761,-0.000380039215087891,0.0000414786663076343
762,-0.000423431396484375,0.0000489298591412188
763,-0.000396728515625,0.000051123970886659
764,-0.000391006469726562,0.0000432425844144998
765,-0.000350475311279297,0.0000322509050774558
766,-0.000410079956054688,0.0000376029260053337
767,-0.000413417816162109,0.0000496632252715272
768,-0.000375747680664062,0.000052333828519911
769,-0.000483989715576172,0.0000445083491864073
770,-0.000348091125488281,0.0000351600721470371
771,-0.000381946563720703,0.0000337208503880256
772,-0.000361919403076172,0.0000380477508944773
773,-0.000395774841308594,0.0000464775602151019
774,-0.000460147857666016,0.0000466240927426478
775,-0.000481128692626953,0.0000612025647277286
776,-0.00046539306640625,0.0000603853594266285
777,-0.000330448150634766,0.0000452656368148807
778,-0.000394821166992187,0.0000497558496885131
779,-0.000394821166992187,0.0000441737578507174
780,-0.000439643859863281,0.0000495061697932954
781,-0.000352382659912109,0.0000403068450075264
782,-0.000368118286132812,0.0000390038513351157
783,-0.000314235687255859,0.0000434065889187384
784,-0.000338554382324219,0.0000471309571538989
785,-0.000439643859863281,0.0000556573351341815
786,-0.000444412231445313,0.0000518515190257576
787,-0.000384807586669922,0.0000411360150727728
788,-0.000329017639160156,0.0000382927255876805
789,-0.000356674194335937,0.0000390089518303662
790,-0.000420093536376953,0.0000410350167163816
791,-0.000435352325439453,0.0000458483328974204
792,-0.000439167022705078,0.0000502198049380554
793,-0.000374317169189453,0.0000373587535028863
794,-0.000347137451171875,0.0000322200459132965
795,-0.000398159027099609,0.0000456196366856632
796,-0.000473976135253906,0.0000490424177507442
797,-0.000377655029296875,0.0000669408723847786
798,-0.000411033630371094,0.0000609400873072423
799,-0.000416278839111328,0.0000473283399627433
800,-0.000375747680664062,0.0000452769373720902
801,-0.000412464141845703,0.0000376150174646294
802,-0.000439167022705078,0.0000537368186454041
803,-0.000392436981201172,0.0000576775887621001
804,-0.000426292419433594,0.0000527708166507871
805,-0.000432968139648438,0.0000377568020575128
806,-0.000492572784423828,0.0000520430131898585
807,-0.0004119873046875,0.0000580567598542191
808,-0.000392436981201172,0.0000510583281727318
809,-0.000477313995361328,0.0000450137813198621
810,-0.0004425048828125,0.0000498106569564842
811,-0.000525951385498047,0.0000454836166769997
812,-0.000466823577880859,0.0000436051873163507
813,-0.000448703765869141,0.0000564563918645465
814,-0.000494956970214844,0.0000530790656701593
815,-0.000460624694824219,0.0000496116925398941
816,-0.0004730224609375,0.0000424438644628023
817,-0.000441551208496094,0.0000393506235425472
818,-0.000470638275146484,0.0000293608390332018
819,-0.000536441802978516,0.0000389557281195846
820,-0.000458240509033203,0.0000710615364168179
821,-0.000469207763671875,0.0000513226104477561
822,-0.000410556793212891,0.0000409400176908827
823,-0.000487327575683594,0.0000397616147656965
824,-0.000500202178955078,0.0000454698672837882
825,-0.000530719757080078,0.0000417688665356856
826,-0.000501155853271484,0.0000462003287674811
827,-0.000459194183349609,0.0000656530484088694
828,-0.000544071197509766,0.00005631222748719
829,-0.000505924224853516,0.0000358334479034155
830,-0.000656604766845703,0.0000447871696444439
831,-0.000552654266357422,0.0000592200267649079
832,-0.000512599945068359,0.0000434785549165911
833,-0.000493526458740234,0.0000411360150727728
834,-0.0004730224609375,0.0000572343650450553
835,-0.000577449798583984,0.0000508094549368762
836,-0.000459194183349609,0.0000549315578407088
837,-0.000509738922119141,0.000054253717987345
838,-0.0005035400390625,0.0000581672930213622
839,-0.000543117523193359,0.0000602430487325065
840,-0.000540256500244141,0.0000602449358391441
841,-0.000492095947265625,0.0000586150997848247
842,-0.000596046447753906,0.0000535927632073483
843,-0.000514984130859375,0.0000492621481261791
844,-0.000436782836914063,0.0000548352365810436
845,-0.000484466552734375,0.0000417668251297526
846,-0.000582218170166016,0.0000367218793859322
847,-0.000598430633544922,0.0000416680379389829
848,-0.000616550445556641,0.0000373982930234814
849,-0.000436305999755859,0.0000401344236318241
850,-0.000463962554931641,0.0000451864537829671
851,-0.000454425811767578,0.0000469182079666695
852,-0.000486373901367188,0.0000560248150613288
853,-0.000491619110107422,0.0000443842936638645
854,-0.000399112701416016,0.0000401110474487554
855,-0.000391960144042969,0.0000391456879572918
856,-0.000456333160400391,0.000061330601765003
857,-0.000492095947265625,0.0000572343650450553
858,-0.000562667846679688,0.0000397051051967584
859,-0.000401973724365234,0.0000558500292441103
860,-0.000494003295898438,0.0000562930449936076
861,-0.000455856323242188,0.0000544837316980869
862,-0.000473499298095703,0.0000373678817210148
863,-0.000481605529785156,0.0000431965515698288
864,-0.000470161437988281,0.0000365348759637896
865,-0.000446319580078125,0.0000630616014980759
866,-0.000377655029296875,0.0000558775027286158
867,-0.000433921813964844,0.0000471176884728837
868,-0.000494003295898438,0.0000656461215204339
869,-0.000468254089355469,0.0000658501584233317
870,-0.000475883483886719,0.0000495669875017823
871,-0.000404834747314453,0.000056705542216949
872,-0.000464439392089844,0.0000669680399477415
873,-0.000497817993164063,0.0000634480174924514
874,-0.000483512878417969,0.0000498676838074782
875,-0.000462055206298828,0.0000469206309897799
876,-0.000456809997558594,0.0000519555605769205
877,-0.000372886657714844,0.000042736821260087
878,-0.0003814697265625,0.0000663420849503137
879,-0.000387668609619141,0.0000573801752110929
880,-0.000443458557128906,0.0000544576427033532
881,-0.000332832336425781,0.0000542180833575646
882,-0.000481128692626953,0.0000508787705720293
883,-0.000302314758300781,0.0000637964637768729
884,-0.000479221343994141,0.0000724400238511443
885,-0.000452518463134766,0.0000867319472764442
886,-0.000298500061035156,0.0000772844038614407
887,-0.000388622283935547,0.0000630453742983824
888,-0.000255584716796875,0.0000576815307768511
889,-0.000461578369140625,0.0000617702003203234
890,-0.000453948974609375,0.0000672593982029169
891,-0.000446319580078125,0.0000590566237404725
892,-0.000380516052246094,0.0000596980317003603
893,-0.00040435791015625,0.0000581467673550376
894,-0.000341415405273437,0.0000436599038945156
895,-0.000473976135253906,0.0000465337855550526
896,-0.000474929809570313,0.0000597817650343039
897,-0.000356674194335937,0.0000478728833644899
898,-0.000396728515625,0.0000591720138929742
899,-0.000421047210693359,0.0000642262658099559
900,-0.000385284423828125,0.000060224174413874
901,-0.000536918640136719,0.0000479689649198887
902,-0.000430107116699219,0.0000558632589047431
903,-0.000396728515625,0.0000837389046421631
904,-0.000439643859863281,0.0000763803231501573
905,-0.000490665435791016,0.0000641678259613141
906,-0.000458240509033203,0.0000671883691739123
907,-0.000431537628173828,0.0000633314427028045
908,-0.000422000885009766,0.0000707633411752604
909,-0.000384330749511719,0.0000576115199181777
910,-0.000468730926513672,0.0000690508940857725
911,-0.000494480133056641,0.0000578173656989524
912,-0.000545978546142578,0.0000615267772799321
913,-0.000550746917724609,0.0000522871023631012
914,-0.000502586364746094,0.0000528483163620842
915,-0.000460147857666016,0.0000712899459496718
916,-0.000432968139648438,0.0000517692332611695
917,-0.000489711761474609,0.000040387853961677
918,-0.000492095947265625,0.0000645176710393304
919,-0.000485420227050781,0.0000681009607716044
920,-0.000422477722167969,0.0000679722964523524
921,-0.000476360321044922,0.000063131871165398
922,-0.000563144683837891,0.0000571498832973813
923,-0.000589847564697266,0.000056149473583426
924,-0.000571250915527344,0.0000621975539228928
925,-0.000610828399658203,0.0000707617345788729
926,-0.000383853912353516,0.0000500349663082499
927,-0.000614166259765625,0.0000441737578507174
928,-0.000543117523193359,0.0000485238920126198
929,-0.000671863555908203,0.0000745865384440755
930,-0.000730514526367188,0.0000712596400052211
931,-0.000502109527587891,0.0000782768535765472
932,-0.000706195831298828,0.0000679455304357791
933,-0.000646591186523438,0.000078189662905768
934,-0.000671863555908203,0.000089946707108271
935,-0.000761508941650391,0.0000755166150843091
936,-0.000606536865234375,0.0000710471364295547
937,-0.000763893127441406,0.0000557185800653776
938,-0.000683307647705078,0.0000728687686366786
939,-0.000823974609375,0.0000879063236269933
940,-0.00077056884765625,0.0000986350081100266
941,-0.000794410705566406,0.0000722923504256342
942,-0.000709056854248047,0.0000505481125047545
943,-0.000700473785400391,0.0000762328260702276
944,-0.000925064086914063,0.0000881026817541955
945,-0.000956058502197266,0.0000894193640697399
946,-0.000973701477050781,0.0000894981555034191
947,-0.000805854797363281,0.0000707022648478778
948,-0.000835418701171875,0.0000923317312036796
949,-0.00106430053710937,0.0000991133304548354
950,-0.00120830535888672,0.0000905664284817457
951,-0.00106954574584961,0.0000929159752495744
952,-0.000878810882568359,0.0000874056948653381
953,-0.000874519348144531,0.000121846590070224
954,-0.0011444091796875,0.00010616455666427
955,-0.00130081176757812,0.000117282555691858
956,-0.00128602981567383,0.0000911669750082337
957,-0.00111150741577148,0.0000759534389830091
958,-0.0013117790222168,0.0000991867137729533
959,-0.00135183334350586,0.00011959585455789
960,-0.00136804580688477,0.0000998037372737971
961,-0.00130796432495117,0.000156146514418762
962,-0.00130462646484375,0.00014078571673198
963,-0.000965595245361328,0.0000899896706549488
964,-0.00121831893920898,0.000105330295355026
965,-0.00139474868774414,0.000143947969039138
966,-0.00149869918823242,0.00013402432749324
967,-0.00135612487792969,0.000106470380683539
968,-0.00120353698730469,0.000116935016542544
969,-0.00118446350097656,0.0000936180842232676
970,-0.00125360488891602,0.000107649090765504
971,-0.00165987014770508,0.000164715319410759
972,-0.00127506256103516,0.000162972309843957
973,-0.00108766555786133,0.00014639755000436
974,-0.00119495391845703,0.000126766958966546
975,-0.00119829177856445,0.000115394592285156
976,-0.00162982940673828,0.000170195466322596
977,-0.00120353698730469,0.000123503585548897
978,-0.000884532928466797,0.000108739783969575
979,-0.000963211059570313,0.000106871111460789
980,-0.00123834609985352,0.000156012490553952
981,-0.00115776062011719,0.000115035420244358
982,-0.0012974739074707,0.000135401603381713
983,-0.000955581665039063,0.000211436284896766
984,-0.000780582427978516,0.000151538218694376
985,-0.000944137573242188,0.000150864525027813
986,-0.000910282135009766,0.000136728430090243
987,-0.000923633575439453,0.00015630370014502
988,-0.000720024108886719,0.000181759416667197
989,-0.000628471374511719,0.000187900463870702
990,-0.000698089599609375,0.00017991363604824
991,-0.000809192657470703,0.000175641852313558
992,-0.00117588043212891,0.000182264103643471
993,-0.00106716156005859,0.000167121730474361
994,-0.000714302062988281,0.00013473160265018
995,-0.000347614288330078,0.00021580029358085
996,-0.000432014465332031,0.000205037760168101
997,-0.0010828971862793,0.000127546586511017
998,-0.00054931640625,0.000171695811738568
999,-0.00118350982666016,0.000222089433937208
1000,-0.000447750091552734,0.000205834645255336
1001,-0.000180244445800781,0.00018737698222365
1002,-0.000663280487060547,0.000195342672520842
1003,-0.000939846038818359,0.000267267120830913
1004,-0.000622749328613281,0.000200833938950133
1005,-0.000352382659912109,0.000204727022731499
1006,-0.000213623046875,0.000211053103540391
1007,-0.0003509521484375,0.000245544746980934
1008,-0.00127458572387695,0.000256401862362492
1009,-0.000603675842285156,0.000268746708365315
1010,-0.000547409057617188,0.000246962982450594
1011,-0.000102043151855469,0.00022133874854101
1012,-0.000575065612792969,0.000200194389352763
1013,-0.00101757049560547,0.000252239194728391
1014,-0.000898361206054688,0.000327286797772242
1015,-0.000780105590820313,0.00030237943276393
1016,-0.000813961029052734,0.000258415825720824
1017,-0.000394821166992187,0.000286826171650308
1018,-0.00104618072509766,0.000297961800921303
1019,-0.00104141235351562,0.000315261131460486
1020,-0.000753402709960938,0.00023232492886347
1021,-0.000439167022705078,0.000292366123296505
1022,-0.000485420227050781,0.000353266507043159
1023,-0.00075531005859375,0.000285204432202172
1024,-0.00105714797973633,0.000402138575534406
1025,-0.0006256103515625,0.000339240064826576
1026,-0.0006866455078125,0.000357850323472857
1027,-0.000578880310058594,0.000330274365568746
1028,-0.0010075569152832,0.000353050180411477
1029,-0.0010075569152832,0.000344031978905918
1030,-0.000624179840087891,0.000245307577233366
1031,-0.000539779663085938,0.000216402130752652
1032,-0.000643730163574219,0.0002727641922684
1033,-0.000346183776855469,0.000219974444227339
1034,-0.00129985809326172,0.000333993030109691
1035,-0.0014796257019043,0.000495161811615913
1036,-0.000124931335449219,0.000345277519552599
1037,0.0000820159912109375,0.0003306431628386
1038,-0.00123310089111328,0.000378790026468091
1039,-0.00122451782226562,0.000569425829339055
1040,-0.00121736526489258,0.000365634305287409
1041,-0.000872611999511719,0.000360806643000056
1042,-0.00084686279296875,0.000380667797224926
1043,-0.00122261047363281,0.000359594658913711
1044,-0.00148963928222656,0.000372817137889
1045,-0.00127601623535156,0.000540153589573147
1046,-0.000825881958007813,0.000372885438180476
1047,-0.000950813293457031,0.000262078308674891
1048,-0.000898838043212891,0.000351128326644744
1049,-0.00102853775024414,0.00055226224863858
1050,-0.00183248519897461,0.000580360775617873
1051,-0.00110387802124023,0.000511951701997479
1052,0.000212192535400391,0.000593685050128663
1053,-0.00137662887573242,0.000557585570880433
1054,-0.001434326171875,0.000844229651253112
1055,-0.00256776809692383,0.000660284317731287
1056,-0.00194168090820312,0.000620296050731623
1057,-0.000412940979003906,0.000704594308755729
1058,-0.00143098831176758,0.000597715710661544
1059,-0.00235128402709961,0.000532707141747116
1060,-0.00324201583862305,0.000625447507924492
1061,-0.00164937973022461,0.000639539429061029
1062,-0.00122308731079102,0.000859332002301034
1063,-0.000200748443603516,0.000896689201467366
1064,-0.00255775451660156,0.000593709560792759
1065,-0.00180768966674805,0.000559708523283576
1066,-0.00278520584106445,0.000832338621110477
1067,-0.000784397125244141,0.000737174824779124
1068,-0.0014805793762207,0.00082172864768528
1069,-0.000860691070556641,0.000794025364320449
1070,-0.00245428085327148,0.000992671895242376
1071,-0.00242996215820312,0.000902609287552121
1072,-0.00177907943725586,0.000925172229226828
1073,0.000916481018066406,0.000737806238021032
1074,-0.00173521041870117,0.000792869937546788
1075,-0.00393056869506836,0.00126705386454339
1076,-0.00343513488769531,0.00133636418856766
1077,-0.00193691253662109,0.00109550242022274
1078,-0.000576972961425781,0.000953659057495115
1079,0.000622272491455078,0.00158559304052915
1080,-0.0022425651550293,0.00130890262573886
1081,-0.000935077667236328,0.00144447631102215
1082,-0.00187301635742187,0.0014850886411293
1083,-0.00115060806274414,0.00136679064576724
1084,-0.00345754623413086,0.00142643155983425
1085,-0.00192451477050781,0.00132391430441186
1086,-0.00379657745361328,0.00130368918497176
1087,-0.0025482177734375,0.00151412249594867
1088,-0.00176239013671875,0.000862070942969716
1089,-0.00163936614990234,0.00103149301201572
1090,-0.00370311737060547,0.00150602779361942
1091,-0.00353765487670898,0.00158121847537811
1092,-0.000413894653320313,0.00163699856234946
1093,0.000526905059814453,0.00218648384538851
1094,0.00215578079223633,0.00162289255374858
1095,-0.00310325622558594,0.00173521349802606
1096,-0.00205802917480469,0.00233982472738389
1097,-0.00727272033691406,0.00217693245667633
1098,0.000752449035644531,0.00215386874595537
1099,-0.00270462036132812,0.00215651554048247
1100,-0.00168704986572266,0.00222207998505176
