Wavelength (nm),Absorbance (AU),Std.Dev.
190,0.248806476593018,0.0000466411582167845
191,0.243502616882324,0.00004752251078531
192,0.238595485687256,0.0000710055200620221
193,0.233762741088867,0.0000672441840127424
194,0.229374885559082,0.000046360000723977
195,0.225325584411621,0.0000552421558681533
196,0.221652030944824,0.0000478989986540422
197,0.218288898468018,0.0000524379971392189
198,0.214900016784668,0.0000394263887791877
199,0.211660861968994,0.0000340220889755852
200,0.208492279052734,0.0000381856960211209
201,0.205233097076416,0.0000541530421955137
202,0.201974868774414,0.0000512827224025221
203,0.198512077331543,0.0000476944434496495
204,0.194828033447266,0.0000346946139594674
205,0.190832138061523,0.000043403969724956
206,0.186395645141602,0.0000632829562013473
207,0.181512355804443,0.0000564926270279689
208,0.176228523254395,0.000062904563218725
209,0.170615196228027,0.0000496426185982515
210,0.164594173431396,0.0000514840618199407
211,0.158003330230713,0.0000488449790298433
212,0.151219367980957,0.0000352424275853502
213,0.144092559814453,0.0000458681656367052
214,0.136852741241455,0.0000466874473454755
215,0.129434585571289,0.0000438249408039416
216,0.122054576873779,0.0000445504748902183
217,0.114614009857178,0.0000449202368952008
218,0.107474327087402,0.000034074677895042
219,0.10041332244873,0.0000260083964219945
220,0.0937027931213379,0.0000273314432286206
221,0.0871915817260742,0.0000266496092888233
222,0.0811982154846191,0.0000275396680472066
223,0.0755186080932617,0.0000296574887969753
224,0.0702791213989258,0.0000309962492180163
225,0.0654387474060059,0.0000345854891983326
226,0.0609512329101563,0.0000343256520134262
227,0.056950569152832,0.0000350450982008414
228,0.0532264709472656,0.0000316360881886849
229,0.0500454902648926,0.0000327163808687485
230,0.0471196174621582,0.0000316190140726097
231,0.0444798469543457,0.0000523935337959384
232,0.0421409606933594,0.0000369356474514715
233,0.0400691032409668,0.0000339610507594479
234,0.0383090972900391,0.0000269882038597044
235,0.0366668701171875,0.0000347453670259193
236,0.035250186920166,0.0000281783125179134
237,0.034090518951416,0.000032741564353219
238,0.0329508781433105,0.0000274466283622025
239,0.0320267677307129,0.0000275871004895028
240,0.0311746597290039,0.0000294444532037028
241,0.0303807258605957,0.0000343215117536003
242,0.0296945571899414,0.0000337562316392656
243,0.0291271209716797,0.0000344339494397258
244,0.0285449028015137,0.0000328844826690038
245,0.0280632972717285,0.0000292711607642908
246,0.0275955200195312,0.0000243070050734194
247,0.0271930694580078,0.0000246079853121743
248,0.0268087387084961,0.0000271959214682533
249,0.0265216827392578,0.0000269249427565095
250,0.0261883735656738,0.0000202490935870652
251,0.0258784294128418,0.0000211551990665618
252,0.0256152153015137,0.0000323301219609908
253,0.0254058837890625,0.0000293191848747977
254,0.0252113342285156,0.0000321228669732365
255,0.0249829292297363,0.0000228540095869966
256,0.0247125625610352,0.0000314956267208633
257,0.0245709419250488,0.0000449632409330499
258,0.024385929107666,0.0000402277925264156
259,0.0241961479187012,0.0000442329116969368
260,0.0240602493286133,0.0000365138657140031
261,0.0239100456237793,0.0000414443915109998
262,0.0236687660217285,0.0000377274330994653
263,0.023526668548584,0.0000412305625046679
264,0.0233426094055176,0.0000342087045075878
265,0.0231823921203613,0.0000355123653231644
266,0.0229301452636719,0.0000244480786427358
267,0.0227723121643066,0.0000299592654084201
268,0.0225410461425781,0.000032952690792984
269,0.0223159790039062,0.0000388212514514486
270,0.0220737457275391,0.000036590067565237
271,0.0219998359680176,0.0000333317359529097
272,0.0216741561889648,0.0000436051873163507
273,0.0214009284973145,0.0000406536886810778
274,0.0211987495422363,0.0000433712164567915
275,0.0209155082702637,0.0000443381641239484
276,0.0207743644714355,0.000046418817685695
277,0.0205860137939453,0.00003129919297118
278,0.0202717781066895,0.0000366986528781252
279,0.0200457572937012,0.0000318107928628021
280,0.0198678970336914,0.0000319098129429437
281,0.0195918083190918,0.0000390919233685676
282,0.0193414688110352,0.0000550576592401927
283,0.0190610885620117,0.0000378395147654524
284,0.0188231468200684,0.00003365335462302
285,0.0185604095458984,0.0000413881193988136
286,0.0182895660400391,0.0000488216984513177
287,0.0181007385253906,0.000042737486295236
288,0.0178036689758301,0.000048030545604303
289,0.0175647735595703,0.0000539837790281109
290,0.0173368453979492,0.0000366180202565294
291,0.0171604156494141,0.0000367032993555387
292,0.0168266296386719,0.0000461806386792105
293,0.0165414810180664,0.0000394054777032419
294,0.0163187980651855,0.0000266341406032456
295,0.0161175727844238,0.0000359743536036996
296,0.015892505645752,0.0000252064934950636
297,0.015681266784668,0.0000313681300124918
298,0.0154209136962891,0.0000379535120555626
299,0.0152287483215332,0.0000415984057021506
300,0.0150265693664551,0.000049202108922729
301,0.0148687362670898,0.0000354627099764882
302,0.0146245956420898,0.0000350069602682118
303,0.0144429206848145,0.0000407939692916614
304,0.0142960548400879,0.00006020340582893
305,0.0140557289123535,0.0000550772719996723
306,0.0138406753540039,0.0000486023159343229
307,0.0136399269104004,0.0000373792888589211
308,0.0134673118591309,0.0000486034854821901
309,0.0133328437805176,0.0000418280239685885
310,0.0131897926330566,0.0000398380252346142
311,0.0129990577697754,0.0000415190741752856
312,0.0127496719360352,0.0000522947117918578
313,0.0126304626464844,0.000043797694150227
314,0.0124392509460449,0.0000334797756341985
315,0.0122785568237305,0.0000411733078666978
316,0.0121345520019531,0.0000483866379906577
317,0.0118613243103027,0.0000440500504679909
318,0.011803150177002,0.000054343748338649
319,0.0115699768066406,0.000057414837338235
320,0.0114808082580566,0.000043749646854359
321,0.0112018585205078,0.0000447223941223677
322,0.0111260414123535,0.0000682443770145477
323,0.0108752250671387,0.0000708339953412611
324,0.0107712745666504,0.000047781367447212
325,0.0106172561645508,0.0000506514646072916
326,0.0104880332946777,0.0000603693544510942
327,0.010380744934082,0.0000658967560173856
328,0.0101661682128906,0.0000524835058962055
329,0.0100212097167969,0.0000461781768278518
330,0.00984954833984375,0.0000491385260907305
331,0.00968313217163086,0.0000531614625355779
332,0.00963306427001953,0.0000552658174844898
333,0.00947380065917969,0.0000400678010238371
334,0.0093541145324707,0.0000445032403308823
335,0.00918769836425781,0.0000514686021351987
336,0.00901412963867188,0.0000480873193186902
337,0.0088648796081543,0.0000707440596105495
338,0.00887489318847656,0.0000587806972741508
339,0.00863790512084961,0.0000497112742901926
340,0.00856733322143555,0.0000416789500873798
341,0.00843429565429688,0.0000366831603694653
342,0.00836324691772461,0.0000528719741709804
343,0.00819683074951172,0.0000428881824156362
344,0.00810623168945313,0.0000394868962993037
345,0.00791358947753906,0.0000522533901441816
346,0.00779819488525391,0.0000515425457644335
347,0.0077509880065918,0.0000657430315432776
348,0.0075836181640625,0.0000540847698948344
349,0.00747585296630859,0.0000529675729224404
350,0.00741338729858398,0.0000653806171455483
351,0.00723791122436523,0.0000765141646710747
352,0.00710821151733398,0.0000591518368654616
353,0.00709629058837891,0.0000515138638241975
354,0.00699520111083984,0.000056693511763389
355,0.00683736801147461,0.0000600956718400134
356,0.0067744255065918,0.0000499713056719083
357,0.00668954849243164,0.0000530961976211163
358,0.00649929046630859,0.0000456980691288851
359,0.00646352767944336,0.0000446244176380132
360,0.00641822814941406,0.0000478253644849801
361,0.00624465942382813,0.0000503926869117706
362,0.00614500045776367,0.0000616781076545051
363,0.00591850280761719,0.0000624820454799641
364,0.00598907470703125,0.0000571120745645865
365,0.00590229034423828,0.0000688266166114847
366,0.00597429275512695,0.0000786419987796337
367,0.0056767463684082,0.0000594595095797705
368,0.00561857223510742,0.0000568747008228891
369,0.00551652908325195,0.0000701226290517928
370,0.00543975830078125,0.0000720592299854577
371,0.00545120239257813,0.0000706893999494685
372,0.00526285171508789,0.0000679906919764489
373,0.00516796112060547,0.0000972911409569327
374,0.00512790679931641,0.000126245733210548
375,0.00506877899169922,0.0000885403274329373
376,0.00493621826171875,0.0000679806586712992
377,0.00492334365844727,0.0000687423239113771
378,0.00497007369995117,0.0000768566244011518
379,0.00474834442138672,0.0000751937576348386
380,0.00480461120605469,0.0000646409006250708
381,0.00465488433837891,0.0000702004062777176
382,0.00449609756469727,0.0000836818645603733
383,0.00449848175048828,0.0000778384630471068
384,0.00439214706420898,0.0000874499068030245
385,0.00431394577026367,0.00010496051315888
386,0.00420475006103516,0.0000969446414237041
387,0.00431537628173828,0.0000701582876501065
388,0.00419521331787109,0.0000604719010959098
389,0.00409936904907227,0.0000784596385981357
390,0.00409984588623047,0.000079433113331593
391,0.00404071807861328,0.0000709686852403441
392,0.00392246246337891,0.0000620951108233678
393,0.00386428833007812,0.0000615803390624169
394,0.00383281707763672,0.0000566042060937905
395,0.00370597839355469,0.0000802985845966115
396,0.00388097763061523,0.0000784161570002431
397,0.00382280349731445,0.00010284660121569
398,0.00359010696411133,0.0000762760618231003
399,0.00360345840454102,0.0000652744613469213
400,0.00366401672363281,0.000063739413496044
401,0.00357532501220703,0.0000779916698465762
402,0.00346517562866211,0.0000679840032708767
403,0.00349903106689453,0.0000725513651595256
404,0.00343036651611328,0.0000679773139071618
405,0.00330162048339844,0.0000740004567511228
406,0.00327920913696289,0.0000786087423733564
407,0.00321340560913086,0.0000990835029572929
408,0.00319814682006836,0.0000702651548676465
409,0.00305509567260742,0.0000616928517191762
410,0.00311279296875,0.0000661447221090139
411,0.00305604934692383,0.0000502299909372461
412,0.00294733047485352,0.0000576144798448771
413,0.00281047821044922,0.0000697911088559633
414,0.002899169921875,0.0000708468339829618
415,0.00286006927490234,0.0000664841654126487
416,0.00285816192626953,0.0000480293621049594
417,0.00285673141479492,0.0000636269462670239
418,0.00275659561157227,0.000087512285630527
419,0.00274896621704102,0.0000857299637526287
420,0.0026850700378418,0.0000574751985092439
421,0.00273227691650391,0.000062139035689146
422,0.00259923934936523,0.0000494464268885131
423,0.00246620178222656,0.0000489031319887787
424,0.00246381759643555,0.0000561555474082676
425,0.00249481201171875,0.0000638178444836487
426,0.00243139266967773,0.0000655369264546534
427,0.00249099731445312,0.0000604681409901331
428,0.0022735595703125,0.0000553696031486485
429,0.00242710113525391,0.0000511784237180896
430,0.00235843658447266,0.0000657291960022094
431,0.00226926803588867,0.0000700155442923647
432,0.00226783752441406,0.0000638908412468669
433,0.00226116180419922,0.0000699180521898994
434,0.00216770172119141,0.0000574098868870804
435,0.00217485427856445,0.0000559628895390068
436,0.00214147567749023,0.0000537378764463834
437,0.00215482711791992,0.0000673016417965017
438,0.00210094451904297,0.0000785219202324684
439,0.00200319290161133,0.000066901799685061
440,0.00203895568847656,0.0000629732028199727
441,0.00200939178466797,0.0000638819436684196
442,0.0018916130065918,0.000063508909837026
443,0.00203752517700195,0.0000684107620308972
444,0.00195837020874023,0.0000594136037558418
445,0.00193500518798828,0.0000592344230376412
446,0.001922607421875,0.0000582659106857766
447,0.00190019607543945,0.0000549812060163996
448,0.00188827514648437,0.0000517252939956895
449,0.00189876556396484,0.0000535492587049748
450,0.00173234939575195,0.0000470210763382761
451,0.00175094604492187,0.0000667418734799103
452,0.00178098678588867,0.0000552894689746296
453,0.00177860260009766,0.000059006551263925
454,0.00177574157714844,0.0000613546947725938
455,0.00173521041870117,0.000053217035002743
456,0.00167369842529297,0.0000431662746858851
457,0.00166463851928711,0.0000717287357195807
458,0.00154352188110352,0.0000734081474225075
459,0.00155878067016602,0.0000522979726366772
460,0.00162124633789062,0.0000511039532339815
461,0.00162696838378906,0.0000698155389614416
462,0.00156211853027344,0.0000744156291743873
463,0.0015263557434082,0.0000742458577123715
464,0.00159311294555664,0.0000642121034578963
465,0.00145912170410156,0.0000688431324892958
466,0.00147676467895508,0.000053623513373266
467,0.00150346755981445,0.0000541687851220139
468,0.0015106201171875,0.0000558398504492156
469,0.00153207778930664,0.0000666378862315299
470,0.00137519836425781,0.000073384913319244
471,0.00135946273803711,0.0000692842914083526
472,0.00131464004516602,0.0000700691071289317
473,0.00142621994018555,0.0000565640227883364
474,0.00127887725830078,0.00007622536915146
475,0.00144767761230469,0.0000658173477477212
476,0.00136852264404297,0.0000761149213380238
477,0.00134801864624023,0.0000773373424196502
478,0.00128841400146484,0.0000998879954038518
479,0.00133752822875977,0.0000703734752931034
480,0.00132465362548828,0.000054492077538399
481,0.00125265121459961,0.0000617333797398459
482,0.00121784210205078,0.0000770117844895264
483,0.0011448860168457,0.0000657897050133025
484,0.00123119354248047,0.0000716415101444692
485,0.00156641006469727,0.000057536484317481
486,0.00102090835571289,0.0000551278200727567
487,0.00111961364746094,0.0000532576089804696
488,0.00114202499389648,0.0000602515402469235
489,0.001129150390625,0.0000613676640126235
490,0.00124740600585937,0.0000477206563911446
491,0.0011439323425293,0.0000698660007758803
492,0.00107622146606445,0.0000774974081060621
493,0.00112581253051758,0.0000903729075659343
494,0.00104427337646484,0.0000791879952710567
495,0.00115537643432617,0.0000605658278728663
496,0.000993728637695313,0.0000690508940857725
497,0.00101089477539062,0.0000555592028184109
498,0.000995635986328125,0.0000497227076890628
499,0.00107669830322266,0.0000455185963917656
500,0.000985622406005859,0.0000724478703892086
501,0.000977516174316406,0.0000665781480875355
502,0.000963211059570313,0.0000896580666845991
503,0.000922679901123047,0.0000588985582695994
504,0.00102949142456055,0.0000415683322558272
505,0.000959396362304688,0.0000493463106742469
506,0.000853061676025391,0.0000671104892187469
507,0.00101757049560547,0.000075865076593216
508,0.0009613037109375,0.000068054201891604
509,0.000919818878173828,0.0000816366939612119
510,0.00089263916015625,0.0000873067872250429
511,0.000920772552490234,0.0000862469117831203
512,0.000932216644287109,0.0000592373018723456
513,0.000815391540527344,0.0000512827224025221
514,0.000984668731689453,0.0000787142468415221
515,0.000888347625732422,0.0000835853511408799
516,0.000912189483642578,0.0000645599476808175
517,0.000940799713134766,0.0000535035940272267
518,0.000830173492431641,0.0000586015213715212
519,0.000849246978759766,0.0000820118326419197
520,0.000766754150390625,0.0000622560171518009
521,0.000856399536132813,0.0000864509844467895
522,0.000762939453125,0.0000862495480537505
523,0.000795841217041016,0.0000629713974732177
524,0.000812530517578125,0.0000900528151051277
525,0.000706195831298828,0.0000669578534033884
526,0.000802516937255859,0.0000485508279365037
527,0.000746250152587891,0.0000560248150613288
528,0.000782012939453125,0.0000697780759690418
529,0.000829696655273438,0.0000532906859243336
530,0.000721931457519531,0.0000434065889187384
531,0.000717639923095703,0.0000607335940800298
532,0.00077056884765625,0.0000542432396439699
533,0.000734329223632813,0.0000731366236218356
534,0.000689983367919922,0.0000751347696735976
535,0.000803947448730469,0.0000539469124124416
536,0.000720024108886719,0.0000633152846612856
537,0.000704288482666016,0.0000759459546320175
538,0.000683307647705078,0.0000580704656473372
539,0.000629901885986328,0.000063187670797262
540,0.000616073608398438,0.0000476276544988246
541,0.000659942626953125,0.0000606493003626826
542,0.000668048858642578,0.0000642439643596622
543,0.0006561279296875,0.0000609689964898856
544,0.000657081604003906,0.0000564855831222194
545,0.000573158264160156,0.0000512605489656491
546,0.000673294067382813,0.0000574504679940378
547,0.000657081604003906,0.0000556164677117284
548,0.000635623931884766,0.0000590777954738801
549,0.000642299652099609,0.0000698008819242105
550,0.000618457794189453,0.0000590970359223544
551,0.000568389892578125,0.0000620639785679568
552,0.000635623931884766,0.0000593638323871922
553,0.000629425048828125,0.0000600540386072646
554,0.000657081604003906,0.0000633296475684428
555,0.000555515289306641,0.0000597132646762909
556,0.000570774078369141,0.0000571130698519052
557,0.000588417053222656,0.0000556583564352768
558,0.000660896301269531,0.0000649742028189226
559,0.00067901611328125,0.0000662460512765087
560,0.0006103515625,0.0000553213310709884
561,0.000515937805175781,0.0000518350723228267
562,0.000538825988769531,0.000061709434581134
563,0.000514984130859375,0.0000541341446404217
564,0.000493526458740234,0.0000507008193989354
565,0.000570297241210938,0.000055756314238816
566,0.000576496124267578,0.0000555172392817829
567,0.000544548034667969,0.0000518942560593139
568,0.000546932220458984,0.0000528504675095915
569,0.000581264495849609,0.0000511039532339815
570,0.000536918640136719,0.0000425875916857458
571,0.000567913055419922,0.0000401938652961248
572,0.000509738922119141,0.0000463698087318562
573,0.000542640686035156,0.0000434105174131052
574,0.000499248504638672,0.0000492586863151308
575,0.000491619110107422,0.0000431023602442811
576,0.000491619110107422,0.0000573702678996578
577,0.000558853149414063,0.0000543332873579098
578,0.000461578369140625,0.0000458322124774956
579,0.000514030456542969,0.0000491997982594304
580,0.000588417053222656,0.0000413104480856741
581,0.000551223754882813,0.0000402581613906964
582,0.000441074371337891,0.0000387729016016572
583,0.00046539306640625,0.0000526586712599923
584,0.000528335571289063,0.000053401504074408
585,0.000519275665283203,0.0000356481622535051
586,0.000473976135253906,0.0000566624212692695
587,0.000501632690429688,0.0000630056902157526
588,0.000386714935302734,0.0000440668228389899
589,0.000467300415039063,0.0000444738530226545
590,0.000473976135253906,0.0000441158132074695
591,0.0004119873046875,0.0000509870269596119
592,0.000510215759277344,0.0000379145515543963
593,0.000467777252197266,0.000040023087630736
594,0.000443458557128906,0.0000405577964760669
595,0.000473976135253906,0.0000438923359144909
596,0.000457763671875,0.0000638570238532843
597,0.000464439392089844,0.0000539669288430642
598,0.000398159027099609,0.0000448404439311711
599,0.000451087951660156,0.0000399584132865813
600,0.00045013427734375,0.0000458433733719694
601,0.000433921813964844,0.0000580391333644075
602,0.000431060791015625,0.0000562152383980337
603,0.000412940979003906,0.0000412622597747496
604,0.000374794006347656,0.000044041016545585
605,0.000446796417236328,0.0000489008071982096
606,0.000394344329833984,0.0000401252164581517
607,0.000452041625976563,0.0000496758140304253
608,0.000380992889404297,0.0000488135476257089
609,0.000437736511230469,0.0000518975420657164
610,0.000397205352783203,0.0000420137916151907
611,0.000374317169189453,0.0000452882351095257
612,0.000388145446777344,0.0000505908270107017
613,0.000372886657714844,0.0000577927816030978
614,0.000338077545166016,0.000043174175050412
615,0.000375747680664062,0.0000417280194419082
616,0.000313282012939453,0.0000452794482240191
617,0.000402450561523438,0.000036692456659622
618,0.000355720520019531,0.0000507792395213238
619,0.000389575958251953,0.0000447122247415024
620,0.000486850738525391,0.0000456358321960089
621,0.000356197357177734,0.0000436455799922902
622,0.000354766845703125,0.0000442650273707365
623,0.000344753265380859,0.0000567145633824125
624,0.000334262847900391,0.0000556052239049066
625,0.000377655029296875,0.0000505469879513666
626,0.000346660614013672,0.0000461363052558592
627,0.000367641448974609,0.000033397328708847
628,0.000359058380126953,0.000043655997841822
629,0.000350475311279297,0.0000440577923557102
630,0.000304222106933594,0.0000504028379729478
631,0.000392913818359375,0.0000413530822673298
632,0.000371456146240234,0.0000473187306352065
633,0.000399589538574219,0.0000401117560180949
634,0.000329494476318359,0.0000478633833627365
635,0.000362873077392578,0.0000483819386619436
636,0.000388145446777344,0.0000492644558650662
637,0.000320911407470703,0.0000345254470428863
638,0.000319957733154297,0.0000457092627773393
639,0.000297069549560547,0.0000639086326875077
640,0.000409603118896484,0.0000559273275441874
641,0.0003204345703125,0.0000626437727509666
642,0.000324249267578125,0.0000561606084271778
643,0.000372886657714844,0.0000536574241396279
644,0.000363349914550781,0.0000614676204585812
645,0.000380992889404297,0.0000478051546580484
646,0.000316619873046875,0.0000568916889355063
647,0.000365734100341797,0.0000443689224794507
648,0.000361442565917969,0.0000576381537863685
649,0.000254154205322266,0.0000504276430755702
650,0.000270366668701172,0.0000450945281195684
651,0.000349521636962891,0.0000537674864246319
652,0.000280380249023437,0.0000588763566210563
653,0.000337600708007812,0.000048482873849764
654,0.000264167785644531,0.0000652326477764017
655,0.000545501708984375,0.0000488810420142125
656,0.000607490539550781,0.0000473403488792195
657,-0.000514984130859375,0.0000444764092115823
658,0.000345706939697266,0.0000464885661758665
659,0.000291824340820312,0.0000490447358287712
660,0.00030517578125,0.0000525960247764038
661,0.000264644622802734,0.0000414574192717708
662,0.000266551971435547,0.0000418205489144911
663,0.000252246856689453,0.0000516516119865892
664,0.000288486480712891,0.0000466764882794009
665,0.000267982482910156,0.0000565167708970225
666,0.000223636627197266,0.0000612601217203373
667,0.000256061553955078,0.0000381275962256514
668,0.0002593994140625,0.000040275101497228
669,0.000258445739746094,0.0000422929292115484
670,0.000267505645751953,0.0000443368820627304
671,0.000273227691650391,0.0000482631289710706
672,0.000285625457763672,0.0000477444738494009
673,0.000253200531005859,0.000047796830480858
674,0.000285148620605469,0.000043615614813915
675,0.000232219696044922,0.0000411449960567817
676,0.000266551971435547,0.0000464579876247872
677,0.000288486480712891,0.0000518898743937462
678,0.000260353088378906,0.0000435569276682634
679,0.000257492065429687,0.000044106792754544
680,0.000257015228271484,0.0000454911145944631
681,0.000287055969238281,0.0000530158437544053
682,0.000231742858886719,0.0000344504534425138
683,0.000262260437011719,0.0000445198419678086
684,0.000240802764892578,0.0000634032064002787
685,0.000209808349609375,0.0000565238109162022
686,0.000281333923339844,0.000048908943481745
687,0.000292778015136719,0.0000455572926044319
688,0.000263214111328125,0.0000528192672960205
689,0.000258922576904297,0.0000615156897092255
690,0.000196456909179687,0.0000539511270149803
691,0.000271320343017578,0.000058092975287604
692,0.000194072723388672,0.0000502209368177661
693,0.000196456909179687,0.000051872344030275
694,0.000223159790039062,0.0000448531189586824
695,0.000215053558349609,0.0000469763260272053
696,0.000229358673095703,0.0000479191689024465
697,0.000271320343017578,0.0000359205897045341
698,0.000308990478515625,0.0000426909088157564
699,0.000298976898193359,0.0000666020497749282
700,0.000240325927734375,0.0000382786207689756
701,0.000252246856689453,0.0000405858176183318
702,0.0002593994140625,0.000043775624914278
703,0.000225543975830078,0.0000460450413906907
704,0.000221729278564453,0.0000424425251805192
705,0.000155448913574219,0.0000418667369637505
706,0.000240802764892578,0.000042737486295236
707,0.000244617462158203,0.0000424652872348731
708,0.000195503234863281,0.0000545931693319768
709,0.000174522399902344,0.0000487436274967719
710,0.000254154205322266,0.0000502616675112558
711,0.000257492065429687,0.000048709796789251
712,0.000270366668701172,0.000055192742428246
713,0.000209808349609375,0.0000524553384640331
714,0.000204563140869141,0.0000485660459808122
715,0.000135421752929687,0.0000325212031038858
716,0.000235557556152344,0.0000559740614996805
717,0.000153064727783203,0.0000510583281727318
718,0.000164031982421875,0.0000492436823217158
719,0.000110149383544922,0.0000448847908680074
720,0.000226974487304687,0.0000539374283526398
721,0.000217914581298828,0.0000584529231166881
722,0.000139713287353516,0.0000514011878136134
723,0.000149726867675781,0.0000428178793089714
724,0.000165939331054687,0.0000463881931572545
725,0.000136852264404297,0.000049413077355566
726,0.0000824928283691406,0.0000587758618639212
727,0.000116825103759766,0.00006144172143897
728,0.000158309936523437,0.0000676890458926448
729,0.000119209289550781,0.0000578625731444912
730,0.000164508819580078,0.0000584033063461449
731,0.000133037567138672,0.0000493889136361086
732,0.0000562667846679688,0.0000591662497300953
733,0.0000772476196289063,0.0000587574836759543
734,0.0000348091125488281,0.0000582454197722941
735,0.0000624656677246094,0.0000630074945799215
736,0.0000939369201660156,0.0000712069727090267
737,0.0000581741333007813,0.0000649899484153779
738,-0.0000152587890625,0.0000594222137991818
739,0.000159740447998047,0.0000463759376834316
740,0.0000543594360351563,0.0000532597435967546
741,0.000011444091796875,0.0000457502827236365
742,0.0000386238098144531,0.0000567446235760652
743,0.0000805854797363281,0.0000558602061842346
744,0.000057220458984375,0.0000416598519519476
745,0.0000681877136230469,0.0000429689549328106
746,0.000080108642578125,0.0000603411000207172
747,0.000116348266601562,0.0000522446866854255
748,0.000161647796630859,0.0000490064735200273
749,0.000118732452392578,0.0000401761835167491
750,0.000134944915771484,0.0000508228782443017
751,0.0000357627868652344,0.0000469981017711703
752,0.0000348091125488281,0.0000607803734092175
753,0.0000429153442382813,0.0000679338169873538
754,0.000149250030517578,0.0000472068786621094
755,0.000110149383544922,0.0000534440652544123
756,0.000104427337646484,0.0000496013795688537
757,0.000111103057861328,0.0000527977391649872
758,0.000148773193359375,0.0000611151975085246
759,0.000150203704833984,0.0000611282175614018
760,0.000101566314697266,0.0000534270448510334
761,0.000102996826171875,0.0000398073358513572
762,0.000115394592285156,0.0000426349486727839
763,0.000174045562744141,0.0000500962767349498
764,0.000218868255615234,0.0000453384132148947
765,0.000129222869873047,0.0000442162023278643
766,0.000173568725585937,0.000048482873849764
767,0.000165462493896484,0.0000478063437078977
768,0.000170230865478516,0.0000532597435967546
769,0.000158786773681641,0.000046576520237174
770,0.000227928161621094,0.0000507478860141757
771,0.000164985656738281,0.0000592488158123693
772,0.000137805938720703,0.0000557012341717903
773,0.000168323516845703,0.0000550411378116916
774,0.000174045562744141,0.000060445575443512
775,0.000208377838134766,0.0000500406463553012
776,0.000195503234863281,0.000061500903172215
777,0.0001678466796875,0.0000649916976906199
778,0.00029754638671875,0.0000603919484778158
779,0.000179767608642578,0.0000569056753379003
780,0.000181674957275391,0.0000621170771388324
781,0.0001983642578125,0.0000590575862566483
782,0.000306129455566406,0.000048011606113975
783,0.000231266021728516,0.0000740403897540817
784,0.000234127044677734,0.0000647006703101702
785,0.000183582305908203,0.0000522425105941784
786,0.000196933746337891,0.0000536288133439613
787,0.000274181365966797,0.0000489414750897102
788,0.000204086303710937,0.0000492459909259374
789,0.000240325927734375,0.0000597246868585632
790,0.000217437744140625,0.0000398765319356165
791,0.000189781188964844,0.0000371703664070022
792,0.000180721282958984,0.0000517494652085448
793,0.000246524810791016,0.0000442971197604889
794,0.000248908996582031,0.0000629750081149725
795,0.000236988067626953,0.0000510483074572986
796,0.000206947326660156,0.000060943818294928
797,0.000197410583496094,0.0000632182496852427
798,0.000264644622802734,0.0000443497010071283
799,0.000295639038085937,0.0000367512785566932
800,0.000222682952880859,0.0000482690175191789
801,0.000249385833740234,0.0000456943373033815
802,0.000219821929931641,0.0000577672030450029
803,0.000204563140869141,0.000042810577091534
804,0.000163555145263672,0.0000603919484778158
805,0.000293254852294922,0.0000554660212705459
806,0.00025177001953125,0.000056706544639538
807,0.000241756439208984,0.0000656513167552785
808,0.000204086303710937,0.0000530961976211163
809,0.000115394592285156,0.0000421960473146134
810,0.000244140625,0.0000461128898763145
811,0.000153541564941406,0.0000584198499519034
812,0.000126361846923828,0.0000506615638171899
813,0.000246047973632812,0.0000670715153298652
814,0.000157833099365234,0.0000563081896105544
815,0.000264644622802734,0.0000433253202829662
816,0.000155925750732422,0.000055255531070217
817,0.00019073486328125,0.0000648866577054353
818,0.000154495239257812,0.0000519522782402166
819,0.00019073486328125,0.0000558775027286158
820,0.000167369842529297,0.0000460943956482703
821,0.000148296356201172,0.0000400039094488067
822,0.000190258026123047,0.0000389068148820141
823,0.000121116638183594,0.0000436664132058833
824,0.000109672546386719,0.0000510805893911651
825,0.000109195709228516,0.0000428470757339111
826,0.000170707702636719,0.000069333500172866
827,0.0000791549682617188,0.0000727719745145638
828,0.0000977516174316406,0.0000582327313077479
829,0.0000629425048828125,0.0000619888305664063
830,0.0000734329223632813,0.0000703346931223731
831,0.0000720024108886719,0.0000671883691739123
832,0.0000457763671875,0.0000508888246716378
833,0.0000510215759277344,0.0000486408961659276
834,0.00000143051147460937,0.0000586121903896433
835,-0.00000810623168945313,0.0000458408934080298
836,0.00008392333984375,0.0000583380593955121
837,-0.0000338554382324219,0.0000685618214906327
838,0.0000557899475097656,0.0000730697519275793
839,0.0000429153442382813,0.0000613361625298137
840,0.0000734329223632813,0.0000678048355020654
841,0.0000200271606445312,0.0000694580063459534
842,-0.0000057220458984375,0.0000572323786718253
843,0.000026702880859375,0.0000445989339870068
844,0.0000405311584472656,0.0000362835166544853
845,0.0000257492065429687,0.0000545567145124194
846,0.000080108642578125,0.0000648743919621157
847,0.0000205039978027344,0.000076074582884539
848,0.0000491142272949219,0.0000762745713430497
849,0.0000977516174316406,0.0000554311659908225
850,0.000101566314697266,0.0000464249401671817
851,0.0000176429748535156,0.0000386208662630398
852,0.0000314712524414062,0.0000470694071931956
853,0.00016021728515625,0.0000462618062780672
854,0.000137805938720703,0.0000475033687430308
855,0.0000815391540527344,0.0000455173475791234
856,0.0001068115234375,0.000062890103230437
857,0.000142097473144531,0.0000622066924242751
858,0.000072479248046875,0.0000545837975609099
859,0.000141143798828125,0.0000423238308587567
860,0.0000929832458496094,0.0000420164974689718
861,0.000101566314697266,0.0000462839181918343
862,0.000157356262207031,0.0000499280611552449
863,0.000231742858886719,0.0000823245233447265
864,0.000178813934326172,0.0000735999350798597
865,0.0000624656677246094,0.0000575730270231767
866,0.000187873840332031,0.0000585811478503512
867,0.0000934600830078125,0.0000662786497264635
868,0.000143527984619141,0.0000635124899215767
869,0.000113487243652344,0.0000624146872247943
870,0.000159263610839844,0.0000570752367325374
871,0.00012969970703125,0.0000692399736187164
872,0.000198841094970703,0.0000697748173669447
873,0.000196456909179687,0.0000665883927183895
874,0.000163555145263672,0.0000471888131918286
875,0.000256061553955078,0.00007373265612907
876,0.000303268432617187,0.0000698236804304512
877,0.000243663787841797,0.0000602411615667536
878,0.000198841094970703,0.0000639850795110144
879,0.000185012817382812,0.0000663609323772995
880,0.000235080718994141,0.0000641465619070591
881,0.0001983642578125,0.0000677780033540017
882,0.0001983642578125,0.0000540111493669285
883,0.000138759613037109,0.0000599564659461972
884,0.000208854675292969,0.0000709510618265376
885,0.000250816345214844,0.0000598311887411427
886,0.000206947326660156,0.0000566814787564057
887,0.000240802764892578,0.0000539658755318084
888,0.000242233276367187,0.000045147439722656
889,0.000152587890625,0.0000569176609473296
890,0.000253677368164062,0.0000651559198707269
891,0.000226020812988281,0.0000720844685414562
892,0.000197410583496094,0.0000504591955704142
893,0.000255107879638672,0.0000481168624309681
894,0.000260353088378906,0.0000650441540722317
895,0.000250816345214844,0.0000751362827639218
896,0.000241756439208984,0.0000653806171455483
897,0.000205039978027344,0.0000669510615127787
898,0.000239372253417969,0.0000470742375495317
899,0.000192642211914062,0.0000783726512785134
900,0.000248908996582031,0.0000605470541741812
901,0.000152111053466797,0.0000691989133211965
902,0.00020599365234375,0.0000572015810661369
903,0.000188350677490234,0.0000721018149239952
904,0.000145912170410156,0.0000570891781671736
905,0.000200748443603516,0.0000848595997808298
906,0.000169277191162109,0.000064677823717288
907,0.000185489654541016,0.0000531336545057922
908,0.000110149383544922,0.0000641501064055786
909,0.000220298767089844,0.0000720276693541324
910,0.000209331512451172,0.0000803721725433761
911,0.000104904174804687,0.0000726594066182515
912,0.0000624656677246094,0.0000608784929981408
913,0.0000643730163574219,0.0000649146849872155
914,0.000095367431640625,0.0000711334926269875
915,0.0000162124633789062,0.000064547619854041
916,0.000134944915771484,0.0000629117919665331
917,0.000168323516845703,0.000069963565410447
918,0.0000658035278320313,0.0000687092397223825
919,0.0000348091125488281,0.0000672864371580606
920,-0.0000424385070800781,0.0000813590956163069
921,-0.0000491142272949219,0.0000807911882630084
922,-0.00008392333984375,0.0000935184530039311
923,-0.0000329017639160156,0.0000659209047652644
924,-0.000109195709228516,0.0000903477445673772
925,-0.000145912170410156,0.0000675932439993547
926,-0.000130653381347656,0.00008653773381825
927,-0.000145912170410156,0.0000995391143275561
928,-0.000268936157226562,0.000092398196765643
929,-0.000280380249023437,0.0000886455538835316
930,-0.000473976135253906,0.0000501609119978376
931,-0.000426292419433594,0.0000692580324377644
932,-0.000410556793212891,0.0000940518233180171
933,-0.00055694580078125,0.0000905463416661991
934,-0.000633716583251953,0.0000632811596915401
935,-0.000730991363525391,0.0000794674553623075
936,-0.000767707824707031,0.000071258044598475
937,-0.000804424285888672,0.0000576716752347597
938,-0.000740528106689453,0.0000535810947348407
939,-0.000789642333984375,0.0000880717069442305
940,-0.000851631164550781,0.0000894778288723362
941,-0.000950813293457031,0.000082586488860289
942,-0.00109004974365234,0.0000770029266210617
943,-0.00112390518188477,0.0000809682974012342
944,-0.00115251541137695,0.0000628810640491858
945,-0.00123262405395508,0.0000833401683689469
946,-0.00130748748779297,0.0000648936656607107
947,-0.001434326171875,0.0000828201766908039
948,-0.00138568878173828,0.0000779916698465762
949,-0.00157690048217773,0.0000989595078875194
950,-0.00166893005371094,0.000137960123311057
951,-0.00181055068969727,0.0000950665495929961
952,-0.00168848037719727,0.00013166578337022
953,-0.0020146369934082,0.000126946195770943
954,-0.00231552124023437,0.000111171594854047
955,-0.00241422653198242,0.000102234598413524
956,-0.00252294540405273,0.0000962384501927614
957,-0.00248098373413086,0.0000630904395475988
958,-0.00268840789794922,0.0000986004240082248
959,-0.00265789031982422,0.00011116341355405
960,-0.00290012359619141,0.000101880362602336
961,-0.00293874740600586,0.0000993745111779195
962,-0.00292825698852539,0.000115540309990163
963,-0.00289678573608398,0.0000962502625048838
964,-0.00302791595458984,0.00009720931000383
965,-0.00284242630004883,0.000137153486710216
966,-0.00278282165527344,0.00017127682740431
967,-0.00276422500610352,0.000156452008324645
968,-0.00267887115478516,0.000117307755861133
969,-0.00263595581054687,0.000132780099389435
970,-0.00257253646850586,0.000138568582816705
971,-0.00252771377563477,0.000147533139337675
972,-0.00235605239868164,0.000156794614970107
973,-0.00233888626098633,0.000177690793421463
974,-0.00217390060424805,0.000157670949062474
975,-0.00226783752441406,0.000154327372022359
976,-0.00192022323608398,0.000171082899474075
977,-0.00178050994873047,0.000182727582733116
978,-0.00198698043823242,0.000147045323080843
979,-0.00191020965576172,0.000149568850966733
980,-0.00143098831176758,0.000157171198362978
981,-0.00191164016723633,0.000153999947543598
982,-0.00159931182861328,0.000162259214305144
983,-0.00110864639282227,0.000125639126246448
984,-0.00132656097412109,0.000137421788620339
985,-0.00133943557739258,0.000232973871522977
986,-0.000951766967773438,0.000239859992172
987,-0.0010986328125,0.000159232199306628
988,-0.000978469848632813,0.000151445162977593
989,-0.00113964080810547,0.000195631124953584
990,-0.000736236572265625,0.000144562682796558
991,-0.000779628753662109,0.000167635220927405
992,-0.000561237335205078,0.000250371749254977
993,-0.000608921051025391,0.000257322467475882
994,-0.000500679016113281,0.00019958469116706
995,-0.000260829925537109,0.000243405636464919
996,-0.000179290771484375,0.000252894577697254
997,-0.000157833099365234,0.000237179396858284
998,-0.000307083129882812,0.000178920078563038
999,0.000152111053466797,0.000235899009795884
1000,0.000306606292724609,0.000235671429002052
1001,-0.0000553131103515625,0.000250110066946419
1002,0.000422477722167969,0.00023376890009308
1003,0.000354290008544922,0.000251444693100584
1004,0.000107288360595703,0.000254764950292075
1005,0.000517368316650391,0.000265004797866187
1006,0.000514507293701172,0.000216044597467714
1007,0.000548362731933594,0.000244058654852707
1008,0.000166416168212891,0.000256330909636125
1009,0.00074005126953125,0.000215205225781534
1010,0.000685691833496094,0.0002419026438716
1011,0.000435829162597656,0.000292110925712025
1012,0.00105047225952148,0.000193278517638721
1013,0.000996112823486328,0.000187347857022227
1014,0.000818252563476563,0.000213542139535716
1015,0.000551700592041016,0.000342346498812631
1016,0.00142860412597656,0.000266141780587107
1017,0.000557899475097656,0.000349549933793417
1018,0.000683784484863281,0.000251603794133163
1019,0.000583171844482422,0.000155000684005051
1020,0.000633716583251953,0.000265567048321662
1021,0.000608921051025391,0.000326413059363891
1022,0.00100135803222656,0.000295392826060645
1023,0.000865459442138672,0.000326390767957776
1024,0.00106620788574219,0.000414557738857945
1025,0.00107526779174805,0.000427416358808267
1026,0.00129461288452148,0.000365455165466232
1027,0.00157356262207031,0.000314041346770532
1028,0.00107097625732422,0.000272544035493714
1029,0.00104093551635742,0.000222906963882375
1030,0.000734806060791016,0.000301692876572563
1031,0.000643730163574219,0.000270789772398702
1032,0.000818252563476563,0.000338757145298665
1033,0.00106477737426758,0.000268326738457337
1034,0.000676155090332031,0.000351449365426057
1035,0.00075531005859375,0.000381993887323408
1036,0.000987052917480469,0.000367113828243393
1037,0.00100278854370117,0.000329877586504035
1038,0.000418663024902344,0.00044814981649478
1039,0.000643730163574219,0.000442743237197041
1040,0.000743865966796875,0.000591105774416319
1041,0.00078582763671875,0.000372865925088117
1042,0.000424861907958984,0.000522265353092189
1043,0.000315189361572266,0.0004720369964068
1044,0.000828266143798828,0.000407905134462839
1045,0.000810146331787109,0.000590181872736014
1046,-0.0000314712524414062,0.000428674218380131
1047,0.000549793243408203,0.000337471371461352
1048,0.000827312469482422,0.000484811855020668
1049,0.00113916397094727,0.000591425723438078
1050,0.00152683258056641,0.000615869848610388
1051,0.000224113464355469,0.000651241559892143
1052,0.00112009048461914,0.000720947507192311
1053,-0.000206947326660156,0.000497097648850704
1054,0.000611782073974609,0.00045513351148405
1055,0.000232696533203125,0.000561577338243956
1056,0.00070953369140625,0.000562897328277955
1057,-0.000857353210449219,0.00053737157143983
1058,0.000552654266357422,0.000833509170215115
1059,0.00133991241455078,0.00068699509940146
1060,-0.000116348266601562,0.000802012317189874
1061,0.000219345092773437,0.000786494000312411
1062,0.000966548919677734,0.00100386713931419
1063,0.00127124786376953,0.00100084745923635
1064,0.000394344329833984,0.00085530923200937
1065,0.000782966613769531,0.000847687191112827
1066,-0.00149965286254883,0.000772096988237408
1067,0.000535488128662109,0.00100363517879135
1068,-0.0000176429748535156,0.00110151654174653
1069,0.000903129577636719,0.000822719748719001
1070,0.00141811370849609,0.000965502816945233
1071,0.000835895538330078,0.00146205955398068
1072,0.000809669494628906,0.0011742329716535
1073,0.00145387649536133,0.00115914081839333
1074,0.00104951858520508,0.00114692411648873
1075,0.00128889083862305,0.00121067217258101
1076,-0.000095367431640625,0.00105133499565354
1077,0.000124931335449219,0.00116425160497717
1078,0.000965595245361328,0.00134032199070684
1079,-0.000711441040039063,0.000763111095194392
1080,-0.00133419036865234,0.000988470432584336
1081,0.000337600708007812,0.00105440330208475
1082,0.000570774078369141,0.00146038648852605
1083,0.0000491142272949219,0.00113054138285068
1084,-0.000731945037841797,0.00151077423850782
1085,-0.00124645233154297,0.00146170120116587
1086,0.00102710723876953,0.00134268673703583
1087,0.000583648681640625,0.0019364238988521
1088,0.0019993782043457,0.00176376025294238
1089,0.00102663040161133,0.00175266970563404
1090,0.0000386238098144531,0.00162023625042689
1091,-0.00129890441894531,0.0018818176518073
1092,-0.000779628753662109,0.00161469425825326
1093,0.00113391876220703,0.00193446905380438
1094,0.000934123992919922,0.00140629423919604
1095,-0.000730037689208984,0.0014021075349956
1096,-0.00282621383666992,0.00223018568951869
1097,-0.000964641571044922,0.0028223398060273
1098,0.00217723846435547,0.00203674828537573
1099,-0.000894546508789063,0.00219079229692841
1100,0.00114536285400391,0.00216653312369371
