Wavelength (nm),Absorbance (AU),Std.Dev.
190,0.221060752868652,0.0000977458021713701
191,0.219281196594238,0.000100970197878006
192,0.216588020324707,0.0000776190716140004
193,0.213722705841064,0.0000497375671783649
194,0.210638046264648,0.0000559557789481214
195,0.207715034484863,0.0000751196370941057
196,0.204919815063477,0.000062567504106414
197,0.202202796936035,0.0000564886020465219
198,0.199337959289551,0.0000515094498004694
199,0.196411609649658,0.0000495394566572598
200,0.193445682525635,0.0000422593148353118
201,0.190483570098877,0.000045492364127228
202,0.18744421005249,0.0000438028852956939
203,0.184309482574463,0.0000463649049872642
204,0.180949211120605,0.000042383554863169
205,0.177312850952148,0.0000350434761556113
206,0.173169612884521,0.0000496712366690675
207,0.168582916259766,0.0000384682300503079
208,0.163583278656006,0.0000493163514402529
209,0.158132553100586,0.000052209858341612
210,0.152301788330078,0.0000570672686692943
211,0.146075248718262,0.0000580107238654851
212,0.139668464660645,0.0000507322019941937
213,0.132809638977051,0.000038778032473861
214,0.126007556915283,0.0000332514862865042
215,0.11902904510498,0.0000372940313278982
216,0.1121506690979,0.0000317526647753248
217,0.105194091796875,0.000037475730143574
218,0.0984535217285156,0.000029141734296031
219,0.0918750762939453,0.0000353913087437849
220,0.0855860710144043,0.0000339551920146797
221,0.0795259475708008,0.0000258873615237145
222,0.0739407539367676,0.0000220875223230874
223,0.068596363067627,0.0000238894940373904
224,0.0637454986572266,0.0000197355290284871
225,0.0591940879821777,0.0000287998393451679
226,0.0551342964172363,0.0000454423560169962
227,0.0513792037963867,0.0000429007717398562
228,0.0480246543884277,0.0000342717896223829
229,0.0450439453125,0.0000274383429000727
230,0.042351245880127,0.0000252002911791302
231,0.0399355888366699,0.000027976873592378
232,0.0378198623657227,0.0000318982318884364
233,0.0359306335449219,0.0000292653343048699
234,0.0342235565185547,0.0000341554898263861
235,0.0327415466308594,0.0000270250377841196
236,0.0314764976501465,0.0000346298369575496
237,0.030296802520752,0.0000334313520761755
238,0.0293059349060059,0.0000406872324873948
239,0.028435230255127,0.0000480423789942198
240,0.0276222229003906,0.0000369871675277124
241,0.0269012451171875,0.0000246881258651809
242,0.0262370109558105,0.0000259191810404276
243,0.0256423950195312,0.0000342286386837121
244,0.0251026153564453,0.0000325019706496276
245,0.0246100425720215,0.0000289371802917728
246,0.0241789817810059,0.0000244771247247898
247,0.0237817764282227,0.0000265486340922577
248,0.0233979225158691,0.0000339861482261762
249,0.0230746269226074,0.0000236809786278207
250,0.0227556228637695,0.0000152918152728396
251,0.0223979949951172,0.0000205420816840263
252,0.022186279296875,0.0000201661109137319
253,0.0219907760620117,0.0000204994923054996
254,0.021721363067627,0.000028800826198676
255,0.0215263366699219,0.0000288816334384489
256,0.021334171295166,0.0000264725157366177
257,0.0211367607116699,0.0000311216165063659
258,0.0209665298461914,0.0000390977393208974
259,0.0207934379577637,0.0000365675345803029
260,0.0205574035644531,0.0000441789048076648
261,0.0204777717590332,0.0000336626433155539
262,0.020331859588623,0.0000285928395191099
263,0.0201997756958008,0.0000300255994633315
264,0.0199847221374512,0.0000297345344164157
265,0.0198764801025391,0.0000227929907357142
266,0.0196042060852051,0.0000277872737075048
267,0.0195918083190918,0.0000350280629797101
268,0.0193319320678711,0.0000498334755279118
269,0.0192356109619141,0.000044106792754544
270,0.0190010070800781,0.0000308970609661892
271,0.018794059753418,0.00004312081950005
272,0.0187621116638184,0.0000472670470296717
273,0.0186004638671875,0.0000391071883986824
274,0.0183062553405762,0.0000416025049422974
275,0.0181412696838379,0.0000415443946504304
276,0.0179886817932129,0.0000316351897807392
277,0.0178122520446777,0.0000342278083248293
278,0.0176610946655273,0.00004863271503793
279,0.0174398422241211,0.0000477385205988572
280,0.0171699523925781,0.000029742658018767
281,0.0170416831970215,0.000026434374364753
282,0.0168356895446777,0.0000330371077055237
283,0.0165586471557617,0.0000366234530245255
284,0.0163025856018066,0.0000327858056277085
285,0.0161194801330566,0.0000302213770789161
286,0.0158543586730957,0.0000326259078277906
287,0.0156064033508301,0.0000325962756361248
288,0.0154104232788086,0.0000262844994784809
289,0.0152144432067871,0.0000388358910369496
290,0.014960765838623,0.000036098179094868
291,0.014739990234375,0.0000276986574469653
292,0.0145587921142578,0.000036189395830174
293,0.0142688751220703,0.0000396657155569934
294,0.0141477584838867,0.0000341538255315952
295,0.0138955116271973,0.000036469470992944
296,0.0136585235595703,0.000037053959831089
297,0.0134787559509277,0.0000349085836655972
298,0.0132813453674316,0.0000496139840201171
299,0.013115406036377,0.0000325465376111063
300,0.0128364562988281,0.0000296143324742257
301,0.0126924514770508,0.0000347698983652766
302,0.0124902725219727,0.0000378289977374612
303,0.0123496055603027,0.0000523110139832837
304,0.0121517181396484,0.0000479594839503485
305,0.0119547843933105,0.0000408023289971951
306,0.0117826461791992,0.0000489507658638606
307,0.0116748809814453,0.0000432438989186089
308,0.0114994049072266,0.0000505121143784957
309,0.0113310813903809,0.0000411712369310092
310,0.0111722946166992,0.0000395286212464575
311,0.0110011100769043,0.0000399804569554416
312,0.0107421875,0.0000457129933843872
313,0.0105876922607422,0.0000393629001892379
314,0.0105152130126953,0.0000469533295634887
315,0.0102634429931641,0.0000412663924063164
316,0.0102348327636719,0.0000415744854123366
317,0.0100188255310059,0.0000424063485704738
318,0.00977420806884766,0.000038800014241101
319,0.0096440315246582,0.000046709357763895
320,0.00952291488647461,0.0000398358848820655
321,0.00933837890625,0.0000587971346944443
322,0.00911092758178711,0.0000701777301577958
323,0.00904560089111328,0.0000549025756713738
324,0.00888490676879883,0.0000516196871602225
325,0.00871086120605469,0.0000481758943050027
326,0.008575439453125,0.0000448683242652807
327,0.00849628448486328,0.0000404525443225138
328,0.00831413269042969,0.0000549615589762614
329,0.0081024169921875,0.0000487576195439924
330,0.00801277160644531,0.000040871926716041
331,0.00777339935302734,0.0000434589396450167
332,0.00771903991699219,0.0000542631467663815
333,0.00759124755859375,0.0000401684010680539
334,0.00737428665161133,0.0000410329388011282
335,0.00726222991943359,0.0000599052478462491
336,0.00712728500366211,0.0000626854995912925
337,0.00708866119384766,0.0000480400125494239
338,0.00697898864746094,0.0000335484678255803
339,0.00689697265625,0.0000461720216251763
340,0.0067448616027832,0.0000604653207573519
341,0.00662374496459961,0.0000455148498510463
342,0.00653266906738281,0.0000406397039236358
343,0.00648641586303711,0.000043954455067048
344,0.00617265701293945,0.0000535535046024367
345,0.00615262985229492,0.0000435856290344444
346,0.00611543655395508,0.0000470851040394861
347,0.00597858428955078,0.0000464702214597918
348,0.00587368011474609,0.0000437080498429527
349,0.00575447082519531,0.00004299342152604
350,0.00567531585693359,0.0000503960708260168
351,0.00553512573242188,0.000048761116928449
352,0.00545167922973633,0.0000626728030590769
353,0.005279541015625,0.0000437106508158993
354,0.00513315200805664,0.0000496838233980583
355,0.00513505935668945,0.0000425381775890329
356,0.00506687164306641,0.0000378590386377583
357,0.00509834289550781,0.0000482313183881563
358,0.00504922866821289,0.0000457129933843872
359,0.00490188598632813,0.0000639495342166147
360,0.00485944747924805,0.0000714842358979321
361,0.00455379486083984,0.0000764948464769463
362,0.00449752807617188,0.0000688579933923268
363,0.00438976287841797,0.0000525754864206064
364,0.00438880920410156,0.0000529729385203676
365,0.00440883636474609,0.0000835975914032407
366,0.00429868698120117,0.0000589757163013314
367,0.00424909591674805,0.0000602562572378608
368,0.00405216217041016,0.0000702263128774657
369,0.00397920608520508,0.0000722073801739736
370,0.00398778915405273,0.0000782390828824232
371,0.00400829315185547,0.0000690722942417967
372,0.00389528274536133,0.0000461990983828215
373,0.00386762619018555,0.0000424210909135475
374,0.00378274917602539,0.000052116141837315
375,0.0037083625793457,0.0000678969901366145
376,0.00364875793457031,0.0000946446687233971
377,0.00371074676513672,0.0000770663855143906
378,0.00356960296630859,0.0000695806558693775
379,0.00341558456420898,0.0000751393088531622
380,0.00342988967895508,0.0000920604495886862
381,0.00321006774902344,0.0000815823646848649
382,0.00334405899047852,0.000079570392523804
383,0.00326395034790039,0.0000949995575026156
384,0.00320672988891602,0.0000920925517836951
385,0.00304746627807617,0.0000797844183892364
386,0.00302410125732422,0.0000737989271459398
387,0.00313854217529297,0.0000611635437337267
388,0.00295829772949219,0.0000552853563988299
389,0.00274848937988281,0.0000668201830637926
390,0.00276851654052734,0.000101039982320867
391,0.00278472900390625,0.000090014933750434
392,0.00281381607055664,0.0000604173566582125
393,0.00255012512207031,0.0000811366133450731
394,0.00250720977783203,0.0000707086964193318
395,0.00257968902587891,0.0000744293774560751
396,0.00249147415161133,0.0000641252908016085
397,0.00249338150024414,0.0000664140190767225
398,0.00244235992431641,0.0000731475039254939
399,0.00229692459106445,0.0000511039532339815
400,0.00228691101074219,0.0000785161286761666
401,0.00230741500854492,0.0000835975914032407
402,0.00219583511352539,0.0000879218415282517
403,0.00204896926879883,0.0000976480540174118
404,0.00213432312011719,0.0000761313493951305
405,0.0019679069519043,0.0000684091001839127
406,0.00181055068969727,0.0000686148622656022
407,0.00202131271362305,0.0000539226720551574
408,0.00199699401855469,0.0000385619480498423
409,0.00185585021972656,0.0000589843902638199
410,0.00172710418701172,0.0000689948930652081
411,0.00177621841430664,0.0000548818647514504
412,0.00183010101318359,0.0000594939157025724
413,0.00160551071166992,0.0000629099848574525
414,0.00160646438598633,0.0000575147452153434
415,0.00165176391601562,0.0000730899754038729
416,0.00152397155761719,0.0000661567523281394
417,0.00152063369750977,0.0000730012616674429
418,0.00148773193359375,0.0000867004827561718
419,0.00139045715332031,0.0000843098798582131
420,0.00153827667236328,0.0000650860887377853
421,0.00159645080566406,0.0000514973092843902
422,0.00118255615234375,0.0000626092817770762
423,0.00123405456542969,0.0000631552770132883
424,0.00125789642333984,0.0000849305744697461
425,0.00107240676879883,0.0000795060724158683
426,0.00127458572387695,0.0000737141512583735
427,0.00137186050415039,0.0000677259858157585
428,0.00104618072509766,0.0000632272406613076
429,0.00133943557739258,0.0000505953211767415
430,0.00102901458740234,0.0000686960015854218
431,0.000901699066162109,0.000066456800041902
432,0.00102376937866211,0.0000614787166984872
433,0.00113296508789062,0.0000570861910035179
434,0.000939369201660156,0.000046572858800923
435,0.000815868377685547,0.0000620163343009104
436,0.00100088119506836,0.0000611468128277223
437,0.00100135803222656,0.0000752602526501629
438,0.000996112823486328,0.0000650074390496035
439,0.000861167907714844,0.0000691644038335484
440,0.00101709365844727,0.000048347854868589
441,0.000992774963378906,0.0000544555550438211
442,0.000673770904541016,0.0000459610175225195
443,0.000936985015869141,0.0000438067782510981
444,0.000681877136230469,0.0000692432573906762
445,0.000725746154785156,0.0000521935245551147
446,0.000775337219238281,0.0000408642767692511
447,0.000605583190917969,0.0000546119080493337
448,0.000725746154785156,0.0000642510424144801
449,0.000650405883789063,0.0000743682545275952
450,0.000581741333007813,0.0000733570226816422
451,0.000657081604003906,0.0000771739985653201
452,0.000608921051025391,0.0000611523903049982
453,0.000563621520996094,0.0000512483494860544
454,0.000618457794189453,0.0000647410714548388
455,0.000632762908935547,0.0000841681745423101
456,0.000532627105712891,0.0000731475039254939
457,0.000633716583251953,0.0000567185723287229
458,0.000564098358154297,0.0000703557027851983
459,0.000482082366943359,0.0000733601221650146
460,0.000379562377929687,0.0000816171953050359
461,0.000417709350585938,0.0000824804241578661
462,0.000420093536376953,0.0000524271558984036
463,0.000567913055419922,0.000049249453629362
464,0.00048065185546875,0.0000410419423407607
465,0.000319957733154297,0.0000573504481423125
466,0.000158786773681641,0.000066161907466707
467,0.000478267669677734,0.0000701339769360289
468,0.000391483306884766,0.000052215301801673
469,0.000174522399902344,0.0000657049767950697
470,0.000442028045654297,0.0000736447165813503
471,0.000465869903564453,0.0000713983039254944
472,0.000437259674072266,0.000076524564755642
473,0.000263214111328125,0.0000740572780040301
474,0.000392436981201172,0.0000914632837094065
475,0.000498294830322266,0.000073672498305035
476,0.000140666961669922,0.0000826112635687689
477,0.000310897827148437,0.0000783407317272676
478,0.000340461730957031,0.0000758081106929047
479,0.000246047973632812,0.0000738959145653172
480,0.000311374664306641,0.0000744095180115968
481,0.000241279602050781,0.0000680742453443923
482,0.000115394592285156,0.0000699700648823743
483,0.000347614288330078,0.0000477051686666268
484,0.000130653381347656,0.000045493613625673
485,0.00240135192871094,0.0000669765275512215
486,-0.00103282928466797,0.0000638053732753839
487,0.000281333923339844,0.0000793385960990642
488,-0.0000119209289550781,0.0000705783428652893
489,0.000214576721191406,0.0000813674792626393
490,0.0000171661376953125,0.0000756189167055562
491,0.0000615119934082031,0.0000728188264462674
492,0.0000524520874023438,0.0000835513410033502
493,0.0000514984130859375,0.0000846503477936946
494,-0.0000195503234863281,0.0000865745103209409
495,0.0000700950622558594,0.000055881571725725
496,-0.00000238418579101562,0.0000646268291363326
497,-0.000103950500488281,0.0000783726512785134
498,0.00000143051147460937,0.0000538340493293922
499,-0.00009918212890625,0.0000649041761748561
500,0,0.0000982886194949957
501,-0.000139713287353516,0.0000666719982820013
502,-0.000103473663330078,0.0000635053295506496
503,-0.000041961669921875,0.0000570104639835818
504,-0.0000696182250976563,0.0000745941591912314
505,-0.0000844001770019531,0.0000724243282247058
506,-0.000209808349609375,0.0000710359344213311
507,-0.000206470489501953,0.0000621408652180867
508,-0.000204563140869141,0.0000639121903813167
509,-0.000180244445800781,0.0000660415160512846
510,-0.0000996589660644531,0.0000629316667415556
511,-0.000185966491699219,0.0000715366990655903
512,-0.0002593994140625,0.0000631102580626882
513,-0.000319480895996094,0.0000567626520510478
514,-0.000163555145263672,0.0000555244060331561
515,-0.000206470489501953,0.0000640135015355193
516,-0.000269889831542969,0.000073980482166542
517,-0.000300407409667969,0.0000606202387203607
518,-0.000195503234863281,0.0000524011277692589
519,-0.000298976898193359,0.0000686430235072006
520,-0.000260353088378906,0.0000641554227861791
521,-0.000322341918945312,0.0000598653812510722
522,-0.000301837921142578,0.0000834069839633416
523,-0.000250816345214844,0.0000827734919049022
524,-0.000309467315673828,0.000114516392297626
525,-0.000299930572509766,0.0000704493618677619
526,-0.000411510467529297,0.0000790773723769307
527,-0.000272750854492187,0.0000856052192306951
528,-0.000459671020507813,0.0000802560993193407
529,-0.000290870666503906,0.0000770811359089051
530,-0.000359058380126953,0.0000766789141373725
531,-0.000353813171386719,0.0000770604845660271
532,-0.000236988067626953,0.0000696981963600541
533,-0.000240325927734375,0.0000754880060271715
534,-0.000309467315673828,0.0000787128025301642
535,-0.000359535217285156,0.0000694940059747188
536,-0.000412464141845703,0.0000737280303468182
537,-0.000357151031494141,0.0000728266321711284
538,-0.000347614288330078,0.0000639513119505567
539,-0.000420093536376953,0.000062155499510952
540,-0.000344276428222656,0.0000604192383205969
541,-0.000381946563720703,0.0000496735254024712
542,-0.000387668609619141,0.0000422451888213786
543,-0.000475406646728516,0.0000514641842294278
544,-0.000425338745117188,0.0000601164776440907
545,-0.000462055206298828,0.0000478942514787427
546,-0.000452995300292969,0.0000682227171572854
547,-0.000525474548339844,0.0000686413672834003
548,-0.000552177429199219,0.0000640703077599297
549,-0.000531673431396484,0.0000808896301031838
550,-0.000559329986572266,0.0000587990682064951
551,-0.00052642822265625,0.0000846785464493679
552,-0.000482559204101563,0.0000788902544312804
553,-0.000545501708984375,0.0000594948711441794
554,-0.000478267669677734,0.0000584198499519034
555,-0.000529766082763672,0.000063095845214527
556,-0.000519275665283203,0.0000694318130740326
557,-0.000529289245605469,0.0000789521963739845
558,-0.000591754913330078,0.0000673742388198092
559,-0.000505924224853516,0.0000693367795154325
560,-0.000516414642333984,0.0000528160386357714
561,-0.000463008880615234,0.0000455248399411251
562,-0.000492572784423828,0.0000608439355788971
563,-0.000489234924316406,0.0000455273371211243
564,-0.000552654266357422,0.000049831194140975
565,-0.000623703002929688,0.0000429179932518474
566,-0.000536918640136719,0.0000521760962135135
567,-0.000484466552734375,0.0000625475136170596
568,-0.000513076782226563,0.0000655508025772851
569,-0.000391483306884766,0.0000535078435482236
570,-0.000463485717773438,0.0000546909562949462
571,-0.000518321990966797,0.0000595101561236909
572,-0.000730991363525391,0.0000392102531224713
573,-0.000375270843505859,0.000040783517250062
574,-0.000488758087158203,0.0000556236216781484
575,-0.000626564025878906,0.0000631750751883609
576,-0.000328540802001953,0.0000437197530026592
577,-0.000450611114501953,0.0000449708256120546
578,-0.000657081604003906,0.0000569546006983709
579,-0.000560760498046875,0.0000602609738595707
580,-0.000372886657714844,0.000049549782516536
581,-0.000316143035888672,0.0000623873591061302
582,-0.000794887542724609,0.0000576026392254998
583,-0.000676155090332031,0.0000477123174718818
584,-0.0003814697265625,0.0000492529160893428
585,-0.000508308410644531,0.0000486140101468389
586,-0.000720500946044922,0.0000506705392028245
587,-0.000304222106933594,0.0000650284216008141
588,-0.000712394714355469,0.000074336144871098
589,-0.000669956207275391,0.0000532298511789751
590,-0.000577926635742188,0.0000416113852439338
591,-0.000701427459716797,0.0000555428305761758
592,-0.000298976898193359,0.0000562799163624285
593,-0.000665664672851563,0.0000445874615922223
594,-0.000643730163574219,0.0000533759510763387
595,-0.000610828399658203,0.0000554096267764904
596,-0.000690460205078125,0.0000675579143192861
597,-0.000634193420410156,0.0000594738478831885
598,-0.000613689422607422,0.000033939284609364
599,-0.000520706176757813,0.0000398715424241428
600,-0.000575065612792969,0.0000566132434068902
601,-0.000699996948242188,0.0000594805379086024
602,-0.00064849853515625,0.0000435856290344444
603,-0.000594139099121094,0.0000632074588257828
604,-0.000691890716552734,0.0000652866519271652
605,-0.000498771667480469,0.0000492459909259374
606,-0.000751972198486328,0.0000580890611941292
607,-0.000688552856445313,0.0000448353729168568
608,-0.000749111175537109,0.0000444495618961983
609,-0.000738143920898438,0.0000509926009570879
610,-0.000649929046630859,0.0000529224804228764
611,-0.000868797302246094,0.0000389163103172501
612,-0.000770092010498047,0.0000457788506469993
613,-0.000805377960205078,0.0000571548562686751
614,-0.000889778137207031,0.0000474135374034382
615,-0.000847816467285156,0.0000509022270486602
616,-0.000948905944824219,0.0000556134014444051
617,-0.000695228576660156,0.0000431511282775258
618,-0.000728130340576172,0.000043714551985153
619,-0.000699043273925781,0.000057551301724475
620,-0.000696659088134766,0.0000694972777435572
621,-0.000882625579833984,0.0000642528118063542
622,-0.000798702239990234,0.0000537907399730925
623,-0.000903606414794922,0.0000500974114056045
624,-0.000847339630126953,0.0000338982257982809
625,-0.00095367431640625,0.0000436885376100896
626,-0.000927448272705078,0.0000597503787851751
627,-0.000809192657470703,0.000061165402440783
628,-0.000924110412597656,0.0000598064819931543
629,-0.000864505767822266,0.000048958893844965
630,-0.000948905944824219,0.0000537452804702964
631,-0.000928401947021484,0.0000618621558902132
632,-0.000896930694580078,0.0000554598719305979
633,-0.000892162322998047,0.0000593073104454171
634,-0.000891685485839844,0.0000549181037356239
635,-0.000848770141601563,0.0000574366142543748
636,-0.000936985015869141,0.0000563727609296576
637,-0.00105094909667969,0.0000692859322635769
638,-0.000980377197265625,0.000072505908379407
639,-0.000985145568847656,0.0000557318409295106
640,-0.000842094421386719,0.0000644559678982384
641,-0.000763893127441406,0.0000490389404282489
642,-0.000783443450927734,0.0000625584183122376
643,-0.00084686279296875,0.0000607036363908353
644,-0.000897407531738281,0.0000652692361155269
645,-0.000941753387451172,0.0000677360568439659
646,-0.000860691070556641,0.0000439078739417336
647,-0.00104427337646484,0.0000594432553215716
648,-0.000855922698974609,0.0000604154749372229
649,-0.000957489013671875,0.0000563071800961514
650,-0.000906467437744141,0.0000456283580593906
651,-0.000885486602783203,0.0000512183929894944
652,-0.000862598419189453,0.0000560734952617254
653,-0.000853538513183594,0.000046889121922876
654,-0.00108432769775391,0.0000565378883247215
655,0.000630378723144531,0.0000483396241455195
656,0.0000529289245605469,0.0000493658895736779
657,-0.00361967086791992,0.0000631120594372782
658,-0.000604152679443359,0.0000596913660509891
659,-0.00106477737426758,0.0000590248519013722
660,-0.000962257385253906,0.0000590508483139523
661,-0.000977039337158203,0.0000597246868585632
662,-0.000976085662841797,0.000073471616483495
663,-0.000992774963378906,0.000059064323430693
664,-0.00102567672729492,0.0000559324092134733
665,-0.000996589660644531,0.0000458346929111317
666,-0.000936985015869141,0.000059162406642843
667,-0.00091552734375,0.0000712293211664991
668,-0.000993251800537109,0.0000621719589729562
669,-0.000988960266113281,0.0000672306573977677
670,-0.000977993011474609,0.0000569915165064641
671,-0.000940322875976563,0.0000559354579934463
672,-0.000997543334960938,0.0000632937341893675
673,-0.00107955932617187,0.0000543918429365067
674,-0.000988483428955078,0.000051476332557938
675,-0.000977516174316406,0.0000458074007538942
676,-0.000946521759033203,0.0000466947519606098
677,-0.000996112823486328,0.0000592094672735828
678,-0.000976085662841797,0.0000770324488882281
679,-0.000967025756835938,0.0000567366090816816
680,-0.000953197479248047,0.000046530120756027
681,-0.00102472305297852,0.0000407967560505055
682,-0.00100851058959961,0.000043655997841822
683,-0.000995159149169922,0.0000460018129789486
684,-0.000936985015869141,0.0000656322655503528
685,-0.000992774963378906,0.0000622322730890056
686,-0.00103282928466797,0.0000507904325118539
687,-0.000981330871582031,0.0000583565696725828
688,-0.00100040435791016,0.0000558082843870101
689,-0.00101613998413086,0.0000489948729816899
690,-0.00103187561035156,0.0000508854735258259
691,-0.000977516174316406,0.0000645317663305662
692,-0.000967025756835938,0.0000456794069526142
693,-0.000967502593994141,0.0000403174206236419
694,-0.00104427337646484,0.0000403885576747748
695,-0.00104045867919922,0.0000351980441796318
696,-0.00101423263549805,0.0000459139960346726
697,-0.000944614410400391,0.0000568046962411791
698,-0.00101327896118164,0.0000529783035748716
699,-0.00102376937866211,0.0000467507160928907
700,-0.00096893310546875,0.0000621975539228928
701,-0.00101375579833984,0.000054253717987345
702,-0.000945091247558594,0.0000662048513442873
703,-0.000987529754638672,0.0000650476496602537
704,-0.000998497009277344,0.0000584966676707564
705,-0.00102949142456055,0.0000551082253031027
706,-0.000966072082519531,0.0000390621030217354
707,-0.00100421905517578,0.0000477837467011633
708,-0.00104522705078125,0.0000547314762008742
709,-0.00103950500488281,0.000057199593554416
710,-0.00104236602783203,0.000049690687542796
711,-0.00107097625732422,0.0000429768915702873
712,-0.00102901458740234,0.0000481935897672358
713,-0.000987052917480469,0.0000514166677681319
714,-0.00107669830322266,0.0000566553984738622
715,-0.00104856491088867,0.0000568337086010279
716,-0.00112342834472656,0.0000520855930997327
717,-0.00106096267700195,0.0000493774029468721
718,-0.00110864639282227,0.0000396965144270794
719,-0.00110530853271484,0.0000469145731973604
720,-0.00110769271850586,0.0000489832696960371
721,-0.00116205215454102,0.0000483842883833535
722,-0.00113630294799805,0.0000412360768236045
723,-0.00113630294799805,0.0000595531240957478
724,-0.00110340118408203,0.0000663523660287054
725,-0.00116109848022461,0.000050669417366566
726,-0.00115203857421875,0.0000483019801221752
727,-0.00115823745727539,0.0000576825162384456
728,-0.00118827819824219,0.0000528450894766371
729,-0.00111293792724609,0.0000508128110961756
730,-0.00114297866821289,0.0000531871185817297
731,-0.00119972229003906,0.0000539205636830014
732,-0.00127983093261719,0.0000571508779262579
733,-0.00124692916870117,0.0000484734933961888
734,-0.00127696990966797,0.000048604655001915
735,-0.00125360488891602,0.0000511317534129625
736,-0.00137186050415039,0.0000519960256929099
737,-0.00127172470092773,0.0000562192829507692
738,-0.00142240524291992,0.0000649672035511205
739,-0.00127458572387695,0.0000671528264860506
740,-0.00128889083862305,0.0000527039894699846
741,-0.00134563446044922,0.0000615101451743969
742,-0.00130462646484375,0.0000620328306882836
743,-0.00130176544189453,0.0000334143447229478
744,-0.00132989883422852,0.0000396678650913417
745,-0.00133752822875977,0.0000601022926498368
746,-0.00133991241455078,0.000064487708316056
747,-0.00125837326049805,0.0000695822897358817
748,-0.00124740600585937,0.0000684522950932555
749,-0.00117349624633789,0.0000590960740487075
750,-0.00127792358398437,0.0000453233656163339
751,-0.00121450424194336,0.0000395717386878254
752,-0.001190185546875,0.0000522240101576044
753,-0.00121212005615234,0.000062785168719685
754,-0.00117111206054687,0.0000668576030496046
755,-0.001190185546875,0.0000467142253501695
756,-0.00114202499389648,0.0000506839993011368
757,-0.00116872787475586,0.0000608887630432711
758,-0.00119972229003906,0.0000556481425808544
759,-0.00113677978515625,0.0000490667521080279
760,-0.00115108489990234,0.0000585607672411534
761,-0.0011744499206543,0.0000504310246442631
762,-0.00117683410644531,0.0000576903993251937
763,-0.0011286735534668,0.0000616688908240087
764,-0.00108480453491211,0.0000759100194754147
765,-0.00107002258300781,0.000075692548337459
766,-0.00115537643432617,0.0000670070740219084
767,-0.00113058090209961,0.0000699115478825045
768,-0.00109577178955078,0.0000529986858288766
769,-0.00105714797973633,0.0000511139630402541
770,-0.00103282928466797,0.0000711910052298016
771,-0.00110816955566406,0.00007322827842885
772,-0.00107288360595703,0.0000694334504430166
773,-0.000972270965576172,0.0000570054784159792
774,-0.00109195709228516,0.0000466898823441652
775,-0.00104904174804687,0.0000692432573906762
776,-0.00107431411743164,0.0000642244956867368
777,-0.00100612640380859,0.0000622450594790677
778,-0.000994205474853516,0.0000697210284440846
779,-0.00102853775024414,0.0000571021207372692
780,-0.0010218620300293,0.0000538287695661979
781,-0.00101995468139648,0.0000545442101082871
782,-0.00102567672729492,0.0000415074352646876
783,-0.00105476379394531,0.0000460462758918475
784,-0.00105857849121094,0.0000648743919621157
785,-0.00112104415893555,0.0000642404250398039
786,-0.00106716156005859,0.0000609745902324076
787,-0.00100851058959961,0.000069932684669677
788,-0.00109624862670898,0.0000636948074095023
789,-0.00108766555786133,0.0000506660517087536
790,-0.00104761123657227,0.000044472574873094
791,-0.0011134147644043,0.0000568856937103529
792,-0.00105094909667969,0.0000750196855136762
793,-0.00106716156005859,0.0000627308233717366
794,-0.000995635986328125,0.0000562597124860011
795,-0.00110387802124023,0.0000589757163013314
796,-0.00108003616333008,0.000060623051746235
797,-0.00114202499389648,0.0000589901721969087
798,-0.00106334686279297,0.0000630561928955103
799,-0.00113344192504883,0.0000747372846104168
800,-0.0011444091796875,0.000056705542216949
801,-0.00104379653930664,0.0000564795447895149
802,-0.00108861923217773,0.0000728188264462674
803,-0.00110387802124023,0.0000710039189453849
804,-0.00109052658081055,0.0000705799536361832
805,-0.00106191635131836,0.0000618125168727829
806,-0.001068115234375,0.0000577012368109666
807,-0.00105810165405273,0.0000543479321671516
808,-0.00112342834472656,0.0000683326115328707
809,-0.00113439559936523,0.0000556828620419392
810,-0.00115966796875,0.0000505458633729594
811,-0.00110483169555664,0.0000478110996115811
812,-0.00115966796875,0.0000538804889367124
813,-0.00110721588134766,0.000041227805068617
814,-0.00114870071411133,0.0000568776990938127
815,-0.00108861923217773,0.0000777025133294901
816,-0.00123691558837891,0.0000678534417258993
817,-0.00119447708129883,0.00006357689697016
818,-0.00115728378295898,0.0000703573186532475
819,-0.00123691558837891,0.0000650651247833856
820,-0.00112485885620117,0.0000676083796391786
821,-0.00116634368896484,0.0000618253900745978
822,-0.00111484527587891,0.0000569835367365417
823,-0.00122547149658203,0.0000503057552143209
824,-0.00113630294799805,0.0000705960593237342
825,-0.00124931335449219,0.0000734127933607687
826,-0.00122356414794922,0.0000504445486521877
827,-0.0012516975402832,0.0000490285069809988
828,-0.00126123428344727,0.0000615544874691198
829,-0.0013427734375,0.0000691906983376903
830,-0.00136756896972656,0.0000642085623817936
831,-0.00137090682983398,0.0000765513013422922
832,-0.00142621994018555,0.0000603222563815029
833,-0.00134849548339844,0.0000500372384044438
834,-0.0013580322265625,0.0000528880984277431
835,-0.00131034851074219,0.0000627163233256899
836,-0.00144529342651367,0.0000719392259255228
837,-0.00142145156860352,0.0000635017490624134
838,-0.00139665603637695,0.0000631048536303886
839,-0.00132322311401367,0.000062765247555709
840,-0.00136089324951172,0.0000684755426045704
841,-0.00134563446044922,0.0000647989943163485
842,-0.00144481658935547,0.0000876109612754741
843,-0.00134038925170898,0.0000575986918114656
844,-0.00137901306152344,0.0000765869356052914
845,-0.00136470794677734,0.0000595722110242516
846,-0.0013422966003418,0.0000706169912260567
847,-0.00123214721679687,0.0000654171227242308
848,-0.00135898590087891,0.0000665200653773036
849,-0.00127696990966797,0.0000655906800777473
850,-0.00125646591186523,0.0000646532106654293
851,-0.00127983093261719,0.0000651733659630605
852,-0.00119924545288086,0.0000509758771361806
853,-0.00121402740478516,0.0000627471319183196
854,-0.00121355056762695,0.0000631768747148076
855,-0.00133752822875977,0.0000661515967878361
856,-0.00132226943969727,0.0000613658114318617
857,-0.00127601623535156,0.0000648007487463348
858,-0.00120735168457031,0.0000816798529923709
859,-0.00127363204956055,0.0000500304218063052
860,-0.00117015838623047,0.0000546587267367833
861,-0.00120306015014648,0.000050453562643531
862,-0.00115537643432617,0.0000518328790348098
863,-0.00107669830322266,0.000058439307021536
864,-0.00113534927368164,0.0000555520405561602
865,-0.00113821029663086,0.0000462998813397917
866,-0.00122499465942383,0.0000664773251260508
867,-0.00108194351196289,0.0000715605332451658
868,-0.00115871429443359,0.0000633422124406092
869,-0.00109577178955078,0.000068161032198255
870,-0.00114154815673828,0.0000795846788216593
871,-0.00111913681030273,0.0000683592259882257
872,-0.00106573104858398,0.0000587284537749666
873,-0.00109004974365234,0.0000720024108886719
874,-0.00105381011962891,0.0000694449109449422
875,-0.00107097625732422,0.0000676033348024265
876,-0.00110197067260742,0.0000729841290597387
877,-0.00104904174804687,0.0000528493919467827
878,-0.00114059448242187,0.000060874758006696
879,-0.00107383728027344,0.0000558520647804844
880,-0.00105142593383789,0.0000652030136070224
881,-0.000990867614746094,0.0000587449058135227
882,-0.00103998184204102,0.000061102174681249
883,-0.00110244750976562,0.0000769630535969801
884,-0.00100040435791016,0.0000636251594700658
885,-0.000971317291259766,0.0000858584994717764
886,-0.00107192993164062,0.0000946182387116872
887,-0.00102853775024414,0.0000865429885611773
888,-0.0010533332824707,0.0000679572418652161
889,-0.000934123992919922,0.0000696312879038689
890,-0.00105094909667969,0.0000640277078165498
891,-0.000935077667236328,0.0000719044505291825
892,-0.00109195709228516,0.0000738435879713303
893,-0.00101280212402344,0.0000593743644253106
894,-0.00103616714477539,0.0000692957765789923
895,-0.00103378295898437,0.0000839639695392783
896,-0.000895023345947266,0.000082132345656567
897,-0.000931739807128906,0.0000654119088889075
898,-0.000984668731689453,0.0000578045832739586
899,-0.00102519989013672,0.0000675781049695633
900,-0.00110387802124023,0.000074566720856484
901,-0.00102901458740234,0.0000780849055879926
902,-0.00106287002563477,0.0000747950660846374
903,-0.00103139877319336,0.0000918131343729337
904,-0.00108528137207031,0.0000748193817764647
905,-0.00105619430541992,0.0000794746080842022
906,-0.00111913681030273,0.000073980482166542
907,-0.00104665756225586,0.0000694563695558518
908,-0.00109434127807617,0.0000957813815769199
909,-0.00119209289550781,0.0000895692623858152
910,-0.00112390518188477,0.0000683575628883437
911,-0.00121498107910156,0.0000835214006264165
912,-0.00126123428344727,0.0000766462892280297
913,-0.00121259689331055,0.0000918156108226334
914,-0.00123357772827148,0.0000871529976642032
915,-0.00129127502441406,0.0000766195857876353
916,-0.00124216079711914,0.0000644771299128928
917,-0.00130128860473633,0.0000516273949602659
918,-0.00128841400146484,0.0000742029711300923
919,-0.00138616561889648,0.000086684746213206
920,-0.00133371353149414,0.0000850322461134291
921,-0.00151491165161133,0.0000648323203675728
922,-0.00147199630737305,0.0000716827572805455
923,-0.00161218643188477,0.0000785667903183837
924,-0.00161075592041016,0.000099310425162848
925,-0.00166416168212891,0.0000978643651030334
926,-0.00171804428100586,0.000041580637658294
927,-0.00177907943725586,0.0000564140880913529
928,-0.00188922882080078,0.0000707633411752604
929,-0.00195980072021484,0.0000772726348121683
930,-0.00199079513549805,0.0000672475652413561
931,-0.00214910507202148,0.0000881052624968108
932,-0.00220823287963867,0.0000818133623419663
933,-0.0021967887878418,0.0000675680103985951
934,-0.00244808197021484,0.0000947287151556623
935,-0.00252437591552734,0.000126853024238559
936,-0.00257396697998047,0.0000863720457746165
937,-0.00264263153076172,0.00011802273554279
938,-0.00275182723999023,0.0000878908029859118
939,-0.00297021865844727,0.0000628521299332864
940,-0.00303363800048828,0.0000678534417258993
941,-0.00311040878295898,0.000110016160136564
942,-0.00320196151733398,0.000109662179871606
943,-0.00327777862548828,0.0000748695079501796
944,-0.00342893600463867,0.0000832569148453291
945,-0.00346994400024414,0.0000969798159981439
946,-0.00383472442626953,0.0000776644633159726
947,-0.00371980667114258,0.000108423584923973
948,-0.00390481948852539,0.0000813786561142391
949,-0.00411272048950195,0.00010168601312106
950,-0.00433349609375,0.000106517352598613
951,-0.00434970855712891,0.0000922849304458843
952,-0.00467586517333984,0.0000918477985925346
953,-0.00490999221801758,0.0000908596907764542
954,-0.00519180297851563,0.0000765156504839878
955,-0.00535392761230469,0.0000771666325958494
956,-0.0054020881652832,0.0000840370534899147
957,-0.00591707229614258,0.0000939744303213121
958,-0.00616550445556641,0.000105384248364493
959,-0.00630760192871094,0.0000967262735617273
960,-0.00623893737792969,0.000106331478806091
961,-0.00646781921386719,0.0000921320468221929
962,-0.00628662109375,0.00011362740332494
963,-0.00638771057128906,0.0000854723124291782
964,-0.00624179840087891,0.0000730573039288641
965,-0.00631093978881836,0.000084394788839473
966,-0.0064244270324707,0.000116275936845099
967,-0.00620698928833008,0.000106730600765225
968,-0.00608921051025391,0.000138703069276072
969,-0.00603580474853516,0.00016317030336339
970,-0.00573205947875977,0.00011884825394546
971,-0.00559759140014648,0.000136964366602297
972,-0.00563621520996094,0.000169314125222566
973,-0.00557041168212891,0.000110954586580269
974,-0.00527620315551758,0.000106626162453276
975,-0.00517702102661133,0.0000810707312312037
976,-0.0049433708190918,0.000125200404093024
977,-0.00496006011962891,0.000138906191719853
978,-0.00475120544433594,0.000166464664639729
979,-0.00448417663574219,0.000175750559207111
980,-0.00424623489379883,0.000214260716340374
981,-0.00434494018554688,0.000167914398577557
982,-0.00402545928955078,0.000186642615892798
983,-0.00383949279785156,0.000174853006536344
984,-0.00368547439575195,0.000141153464115265
985,-0.00362014770507812,0.000132663604556819
986,-0.00336885452270508,0.000176540546165335
987,-0.00327873229980469,0.000171239652767287
988,-0.00324106216430664,0.000230777361858608
989,-0.00292110443115234,0.00013401075472218
990,-0.00252819061279297,0.00016021728515625
991,-0.00261831283569336,0.000184811157754018
992,-0.00256967544555664,0.000163648956575976
993,-0.0023961067199707,0.000179453025609422
994,-0.00237894058227539,0.000215597901701781
995,-0.00207853317260742,0.000189274922540826
996,-0.00191068649291992,0.000144055338708265
997,-0.00202178955078125,0.000195993413726282
998,-0.00159597396850586,0.000226878298084106
999,-0.00124025344848633,0.000247397161363082
1000,-0.00127601623535156,0.000217312224448735
1001,-0.00138330459594727,0.000211814479293694
1002,-0.00121307373046875,0.000208726172782253
1003,-0.00127124786376953,0.000288835818423247
1004,-0.00169992446899414,0.000267103729636775
1005,-0.000979423522949219,0.000276979596873037
1006,-0.000837326049804688,0.000239950977473393
1007,-0.00123977661132812,0.000183725301364838
1008,-0.000588893890380859,0.00020684402278239
1009,-0.000660419464111328,0.000180463808784712
1010,-0.000486373901367188,0.000277622439667699
1011,-0.000360965728759766,0.000286439061645474
1012,-0.000378131866455078,0.000213009088261623
1013,-0.000287532806396484,0.000216624764587699
1014,-0.000484466552734375,0.0002074893761211
1015,-0.000130653381347656,0.000246793519340216
1016,-0.00006866455078125,0.000311120076691121
1017,-0.000204086303710937,0.000251118945207501
1018,-0.000256538391113281,0.000303106444659783
1019,0.0000147819519042969,0.000257802705235532
1020,-0.000276565551757812,0.000254593535671967
1021,-0.000116348266601562,0.000277825478223407
1022,-0.0000972747802734375,0.000299241057272821
1023,-0.0000252723693847656,0.000305687951412805
1024,-0.0000152587890625,0.000249971846395964
1025,0.000181198120117187,0.000282860509623327
1026,-0.000492095947265625,0.000313954451790929
1027,-0.000129222869873047,0.000309719591219855
1028,0.0000834465026855469,0.000363988890210493
1029,0.0000472068786621094,0.000412966306759819
1030,-0.00025177001953125,0.000346077358818911
1031,-0.000230312347412109,0.000375558834739573
1032,-0.0000429153442382813,0.000266360400014534
1033,-0.000147342681884766,0.00030508039891254
1034,-0.000661373138427734,0.000361501693921825
1035,-0.000677108764648438,0.00021469748595467
1036,-0.000775337219238281,0.000261425075059805
1037,-0.000760078430175781,0.000273536670531494
1038,-0.000125408172607422,0.000392598887032123
1039,-0.000906944274902344,0.000388659434502833
1040,-0.000583648681640625,0.000437519335425935
1041,-0.000240802764892578,0.000477614722469773
1042,-0.000734329223632813,0.000465103747380396
1043,-0.000147342681884766,0.00031235709312803
1044,-0.000995635986328125,0.000292981415713231
1045,-0.00168180465698242,0.000448547411036336
1046,-0.00137710571289062,0.000554510566874421
1047,-0.000741481781005859,0.000535214397480488
1048,-0.000607013702392578,0.00065668215742277
1049,-0.000868797302246094,0.000625726642500092
1050,-0.0012660026550293,0.000502179938774537
1051,-0.000624656677246094,0.000570651171014652
1052,-0.00116491317749023,0.000432795855825282
1053,-0.000793933868408203,0.00040868032376612
1054,-0.00192356109619141,0.000510784972497615
1055,-0.00142288208007812,0.000656305333484087
1056,-0.00206804275512695,0.000689289512618738
1057,-0.00204372406005859,0.000751098295546812
1058,-0.00284147262573242,0.000807671502442193
1059,-0.000926494598388672,0.000716980444194462
1060,-0.00182294845581055,0.000915686275674424
1061,-0.00242757797241211,0.000623221605338213
1062,-0.00156068801879883,0.000762176131820201
1063,-0.00142621994018555,0.000724872785436086
1064,-0.00214910507202148,0.000881269377510611
1065,-0.00156497955322266,0.000955716806932959
1066,-0.00145864486694336,0.00110891615754209
1067,-0.00159931182861328,0.000769737475012218
1068,-0.00234556198120117,0.000692385943880519
1069,-0.00223684310913086,0.000890582723618029
1070,-0.00297212600708008,0.00104045474561303
1071,-0.00228166580200195,0.0011645515409903
1072,-0.00189352035522461,0.000893486468519924
1073,-0.00190973281860352,0.000837271738571979
1074,-0.00242519378662109,0.000720624483930084
1075,-0.00163984298706055,0.000932332614602356
1076,-0.0030059814453125,0.00102245273240667
1077,-0.00175809860229492,0.00130458184773853
1078,-0.00210857391357422,0.00122505841547737
1079,-0.00169467926025391,0.00104886833838406
1080,-0.00462055206298828,0.00128966108064926
1081,-0.00286531448364258,0.00103911121153841
1082,-0.00199699401855469,0.00126726057486318
1083,-0.00229644775390625,0.000905795829315735
1084,-0.00210380554199219,0.000883545156933684
1085,-0.00445270538330078,0.00130629850621487
1086,-0.00211334228515625,0.000926633859712138
1087,-0.00246334075927734,0.00109783779624964
1088,-0.00345277786254883,0.00168296903716299
1089,-0.00376415252685547,0.00185913176107604
1090,-0.00332164764404297,0.00177543731770736
1091,-0.00492143630981445,0.00165070197875971
1092,-0.0020899772644043,0.001663977768581
1093,-0.00425577163696289,0.00209596006270664
1094,-0.00166797637939453,0.00143180788424017
1095,-0.00402212142944336,0.00183334207713325
1096,0.000513553619384766,0.00218115303034416
1097,-0.00398397445678711,0.00259121016162146
1098,-0.00351667404174805,0.00305587490838048
1099,-0.00365352630615234,0.00231134141109401
1100,-0.00343418121337891,0.00274297689557801
