Wavelength (nm),Absorbance (AU),Std.Dev.
190,0.282464504241943,0.0000859154177059571
191,0.283200263977051,0.0000754608927047666
192,0.282736778259277,0.0000600436257884872
193,0.282131195068359,0.0000567676589446573
194,0.28095006942749,0.000056664427622377
195,0.279577255249023,0.0000638214072384029
196,0.278125286102295,0.0000454436068904434
197,0.276394844055176,0.0000338697067603185
198,0.274265289306641,0.0000517340848342974
199,0.271718978881836,0.0000706781412424507
200,0.268846988677979,0.0000525603477598395
201,0.265792369842529,0.0000485250634506552
202,0.262560844421387,0.0000542296147707391
203,0.258997440338135,0.0000551989215273001
204,0.254900455474854,0.0000561939997202157
205,0.250278949737549,0.0000681627000932842
206,0.244897842407227,0.0000543939330413334
207,0.238765716552734,0.0000456495316015096
208,0.232017993927002,0.0000624365411075455
209,0.224754333496094,0.0000780251892659835
210,0.216790676116943,0.0000771784178095558
211,0.208088397979736,0.0000593456362825267
212,0.199087619781494,0.0000542568610957501
213,0.189535140991211,0.0000741953102032473
214,0.179908752441406,0.0000517285907352373
215,0.170047283172607,0.0000416816776781086
216,0.160121440887451,0.0000390548263124042
217,0.150184631347656,0.0000496391833210248
218,0.140586853027344,0.000033424550173343
219,0.13106632232666,0.0000333470808793512
220,0.122077941894531,0.0000416530290671589
221,0.11332893371582,0.0000509234402650691
222,0.1052565574646,0.0000383957558612284
223,0.0975179672241211,0.000037843270138549
224,0.0905289649963379,0.000038698794726798
225,0.0839877128601074,0.0000294314192371082
226,0.0780725479125977,0.0000389812554054782
227,0.0726866722106934,0.0000481806137303966
228,0.0678133964538574,0.0000370662303703213
229,0.0635442733764648,0.0000264155520144071
230,0.0596780776977539,0.0000318081123662427
231,0.0562968254089356,0.0000301884433663928
232,0.0532407760620117,0.0000347682634811396
233,0.0506048202514648,0.0000386407308835747
234,0.0482096672058106,0.0000353872931644058
235,0.0461058616638184,0.0000383409396749657
236,0.0443243980407715,0.0000455597880056664
237,0.0427541732788086,0.0000546878381355723
238,0.0413703918457031,0.0000518548077403789
239,0.040132999420166,0.0000407528424635169
240,0.0390872955322266,0.0000439389335121881
241,0.0380911827087402,0.0000296316025458204
242,0.0372562408447266,0.0000275608165016383
243,0.0364999771118164,0.000039120994483888
244,0.035789966583252,0.000031276483101136
245,0.035151481628418,0.0000321184427624682
246,0.0345845222473145,0.0000357707332683688
247,0.0340657234191895,0.0000306662277046462
248,0.0336112976074219,0.0000345649385594198
249,0.0331587791442871,0.0000358794217754512
250,0.0327057838439941,0.0000338478818707993
251,0.0322966575622559,0.0000317428171832099
252,0.0319619178771973,0.0000348254387598232
253,0.0316882133483887,0.0000350840047886774
254,0.0313277244567871,0.0000302439394689034
255,0.0310201644897461,0.0000250441666603254
256,0.0307331085205078,0.0000251935232748376
257,0.0304102897644043,0.0000378041960237013
258,0.0301589965820312,0.0000388783146616176
259,0.0298810005187988,0.0000306347000212494
260,0.0295615196228027,0.0000521935245551147
261,0.0293130874633789,0.0000496678033712117
262,0.0290555953979492,0.0000463685828443269
263,0.0287981033325195,0.0000460252848689378
264,0.0284953117370605,0.0000465911631047835
265,0.0282511711120605,0.0000521390416444269
266,0.0279254913330078,0.0000465020143682277
267,0.0277409553527832,0.0000509167423094185
268,0.0273895263671875,0.0000587420028474216
269,0.0270729064941406,0.0000429729234347754
270,0.0267801284790039,0.0000459931624210176
271,0.026397705078125,0.0000501064878458286
272,0.0261678695678711,0.000049196332060993
273,0.0258889198303223,0.0000477432832586784
274,0.0254883766174316,0.0000453960494688661
275,0.0251588821411133,0.0000471056227923005
276,0.0249028205871582,0.000034082183973751
277,0.0246272087097168,0.0000309623038401138
278,0.0243582725524902,0.0000409136285192731
279,0.0239958763122559,0.0000488915069304956
280,0.0235638618469238,0.0000307476786521025
281,0.0233273506164551,0.0000370593286919229
282,0.0229902267456055,0.0000367381292042889
283,0.0225939750671387,0.0000386892459071207
284,0.0223097801208496,0.0000447198519939517
285,0.0219478607177734,0.0000339108001019461
286,0.0215868949890137,0.0000320129661019017
287,0.0212430953979492,0.000039082470600114
288,0.020904541015625,0.0000435725853025843
289,0.0205988883972168,0.0000465496630167609
290,0.0202751159667969,0.0000447985908963629
291,0.0199365615844727,0.0000305361988956172
292,0.0196433067321777,0.0000386598501304289
293,0.019254207611084,0.0000405143254050304
294,0.0190362930297852,0.0000387303625120894
295,0.0187005996704102,0.0000393209993898169
296,0.0184187889099121,0.0000361068388476841
297,0.0181570053100586,0.0000391964784766428
298,0.0178661346435547,0.0000450907463434947
299,0.0175604820251465,0.0000386451438570231
300,0.0172858238220215,0.0000432360112944815
301,0.0170059204101562,0.000046810256464224
302,0.0167484283447266,0.0000676184681835366
303,0.0165295600891113,0.0000676789678689319
304,0.0162563323974609,0.0000551082253031027
305,0.0159792900085449,0.0000352472660304572
306,0.0157175064086914,0.0000451449215287324
307,0.0155115127563477,0.0000429352078562106
308,0.015312671661377,0.0000436859353205671
309,0.0150895118713379,0.0000410848551545663
310,0.0147848129272461,0.0000370017646428035
311,0.0145735740661621,0.0000431491522670713
312,0.0142931938171387,0.0000384756176999411
313,0.0140528678894043,0.0000394184582976071
314,0.0138764381408691,0.0000442586061003218
315,0.013646125793457,0.0000550328752374783
316,0.0134763717651367,0.0000475691372426602
317,0.0132341384887695,0.0000409851176740501
318,0.0129847526550293,0.0000431049977647979
319,0.0126886367797852,0.0000481440260828725
320,0.012596607208252,0.0000400621258988451
321,0.0123367309570312,0.0000573672953725844
322,0.0121097564697266,0.0000666327679177444
323,0.0118675231933594,0.0000498722431385788
324,0.0116806030273437,0.0000537061333539766
325,0.0115504264831543,0.0000402885073633955
326,0.0112366676330566,0.0000328853469470351
327,0.0111403465270996,0.0000321679591665705
328,0.0109133720397949,0.0000436403701349165
329,0.0106978416442871,0.0000602222866566629
330,0.0105700492858887,0.0000594690688328313
331,0.0102696418762207,0.0000468345369038796
332,0.0100483894348145,0.0000379542609040223
333,0.00993108749389648,0.000035307690650004
334,0.00972938537597656,0.0000400826944039679
335,0.00952482223510742,0.0000434654790524367
336,0.00934267044067383,0.0000506828777628097
337,0.00929546356201172,0.0000476228802752261
338,0.00912380218505859,0.0000323186915200376
339,0.00891447067260742,0.0000288914725180551
340,0.00876283645629883,0.0000405507881650339
341,0.00862741470336914,0.0000458260108060225
342,0.00851821899414063,0.0000358984282245529
343,0.0083465576171875,0.0000381246143622576
344,0.00808477401733398,0.000050872066735045
345,0.00795173645019531,0.0000375658717007661
346,0.00783348083496094,0.0000438456887945956
347,0.0077056884765625,0.0000449973619206947
348,0.00758457183837891,0.0000497398528596317
349,0.00743770599365234,0.0000463820658251241
350,0.00739192962646484,0.0000589824628268367
351,0.00714683532714844,0.0000521455825993498
352,0.00688982009887695,0.0000555213346815584
353,0.00679826736450195,0.0000422680571447896
354,0.00673913955688477,0.0000557124586019641
355,0.00655841827392578,0.0000655924133321594
356,0.00640678405761719,0.0000400209571754723
357,0.00635528564453125,0.000039950588415864
358,0.0062413215637207,0.0000495417514786465
359,0.00610685348510742,0.0000480695847360038
360,0.00599288940429688,0.00004853560512067
361,0.00576543807983398,0.0000396018929644745
362,0.0056157112121582,0.0000612341349390545
363,0.00537347793579102,0.0000665354451467767
364,0.00549793243408203,0.0000441596006258988
365,0.00548505783081055,0.0000627815471600408
366,0.00530052185058594,0.0000470500808088074
367,0.00518560409545898,0.0000616246308488161
368,0.00503301620483398,0.0000715064977003307
369,0.00496625900268555,0.0000698952844659301
370,0.00488376617431641,0.000072323795555623
371,0.00492095947265625,0.0000489797881743229
372,0.00473642349243164,0.0000557756813263119
373,0.0047154426574707,0.0000897999708979333
374,0.00467205047607422,0.0000771032562097007
375,0.00450611114501953,0.0000741845835765625
376,0.00442028045654297,0.0000872963693755666
377,0.00435829162597656,0.0000794116420206637
378,0.00428676605224609,0.0000649742028189226
379,0.00416994094848633,0.0000763431033076097
380,0.00420475006103516,0.000075137795823776
381,0.00399923324584961,0.0000561312481654993
382,0.00406551361083984,0.0000523370869275757
383,0.00399255752563477,0.0000819133515510736
384,0.0038752555847168,0.0000841614207188042
385,0.00384235382080078,0.000082754261102826
386,0.00375699996948242,0.000084848881463217
387,0.0037078857421875,0.0000587671571228969
388,0.00351762771606445,0.0000481050473632809
389,0.00333690643310547,0.0000492332922630873
390,0.00331258773803711,0.0000585636791909944
391,0.00329494476318359,0.0000823728427491545
392,0.00347518920898437,0.0000745407975997458
393,0.00306177139282227,0.0000755482230166667
394,0.00306272506713867,0.0000588560782364714
395,0.00309085845947266,0.0000644365632794678
396,0.00288581848144531,0.0000611969918233362
397,0.00300455093383789,0.000073607657972094
398,0.00286865234375,0.0000709782961671784
399,0.00260543823242187,0.0000677041601154284
400,0.00259542465209961,0.0000780616070925946
401,0.00259733200073242,0.0000643447531361013
402,0.00256586074829102,0.0000660260212285512
403,0.00256967544555664,0.0000606746007741408
404,0.00249624252319336,0.000059796026065137
405,0.00232458114624023,0.0000512694194911692
406,0.00205564498901367,0.0000748436895684564
407,0.00228023529052734,0.0000429405032691385
408,0.00228118896484375,0.000043828831800336
409,0.00217676162719727,0.0000551834724823584
410,0.0020294189453125,0.0000622304462473887
411,0.00212574005126953,0.000061291662285119
412,0.00208520889282227,0.0000595855682363277
413,0.00188064575195312,0.0000570353852846312
414,0.00182437896728516,0.000046064789439158
415,0.00182723999023437,0.0000587468410445625
416,0.00171995162963867,0.0000729093214766625
417,0.0017247200012207,0.0000665286101326186
418,0.00168180465698242,0.0000612749663614277
419,0.00162982940673828,0.0000573484657898416
420,0.00176858901977539,0.0000679321434727025
421,0.00177621841430664,0.0000498414595598387
422,0.00130510330200195,0.0000400812762252421
423,0.00137042999267578,0.0000424143904837362
424,0.00140142440795898,0.0000610872880505783
425,0.00129890441894531,0.0000552092184888923
426,0.0013117790222168,0.000052783741171346
427,0.00148582458496094,0.0000730837533918241
428,0.00117158889770508,0.0000735071970845914
429,0.00147771835327148,0.0000541194419799576
430,0.00118017196655273,0.0000778428445687986
431,0.000946521759033203,0.0000549005049309702
432,0.00110864639282227,0.0000586432164967005
433,0.00124692916870117,0.0000460005772845563
434,0.000988006591796875,0.0000490737025651926
435,0.000893115997314453,0.0000652570422818587
436,0.000998497009277344,0.0000568836951615543
437,0.0010075569152832,0.0000492471451874648
438,0.00108861923217773,0.0000656703624333823
439,0.000809669494628906,0.0000506379958609249
440,0.00104427337646484,0.0000658294377939882
441,0.000988960266113281,0.0000688332234381485
442,0.000608444213867188,0.0000518526152871407
443,0.000883579254150391,0.0000544826883781573
444,0.000648975372314453,0.0000554834406992385
445,0.000765800476074219,0.0000372978416236188
446,0.000725269317626953,0.0000407395893928482
447,0.000552654266357422,0.0000503034952464312
448,0.000694751739501953,0.0000544806016783584
449,0.000617504119873047,0.000063494587480225
450,0.000542163848876953,0.0000734096961012647
451,0.000624656677246094,0.0000704154652075136
452,0.000601768493652344,0.0000628268016510033
453,0.000504493713378906,0.0000575018955191521
454,0.000472545623779297,0.0000570144521237744
455,0.000469207763671875,0.0000464616581135246
456,0.000379085540771484,0.0000561363113751293
457,0.000574111938476563,0.0000610798433746564
458,0.00048065185546875,0.0000481345795947834
459,0.000444412231445313,0.0000621170771388324
460,0.000224590301513672,0.0000610481933736783
461,0.000197410583496094,0.0000757090680450396
462,0.000257015228271484,0.0000652796861600686
463,0.000493049621582031,0.0000561282100204853
464,0.000362873077392578,0.0000571041116415369
465,0.000346183776855469,0.0000708660875843634
466,-0.0000185966491699219,0.0000585957010883096
467,0.000337600708007812,0.0000527147737776561
468,0.000199794769287109,0.0000513414356968462
469,0.00003814697265625,0.0000546670458611778
470,0.000291347503662109,0.0000640845014481322
471,0.000250816345214844,0.0000773329322572724
472,0.000279903411865234,0.000064450676308883
473,0.0000844001770019531,0.0000567295954702967
474,0.000124931335449219,0.0000631228666052739
475,0.000309467315673828,0.0000682826814693076
476,0.00002288818359375,0.0000654223361440372
477,-0.00000905990600585938,0.0000703767061759779
478,0.000110149383544922,0.0000807391062308561
479,0.000100135803222656,0.0000758380980796364
480,0.000148296356201172,0.0000651471950725691
481,0.000111579895019531,0.0000568816965425364
482,-0.0000500679016113281,0.0000529257025897899
483,0.000130176544189453,0.0000484394740241513
484,-0.000149726867675781,0.0000411947014392696
485,0.00227546691894531,0.0000392218490720421
486,-0.0012660026550293,0.0000612285649081212
487,0.0000429153442382813,0.0000816534033890927
488,-0.000212192535400391,0.0000499417213637509
489,-0.000169277191162109,0.0000613064992890365
490,-0.000246524810791016,0.0000673337292026667
491,-0.000143527984619141,0.0000617075922609836
492,-0.000154972076416016,0.0000756760250237067
493,-0.000174045562744141,0.0000758321015509578
494,-0.000205039978027344,0.0000966627840415544
495,-0.000113964080810547,0.000054405427182589
496,-0.000247955322265625,0.0000531614625355779
497,-0.000408172607421875,0.0000740219618142549
498,-0.000249385833740234,0.000042508769003186
499,-0.000291824340820312,0.0000521041426835927
500,-0.000351428985595703,0.0000875564437448439
501,-0.000318527221679687,0.0000691479646909128
502,-0.000391960144042969,0.0000708789204130411
503,-0.000334262847900391,0.0000681993834639783
504,-0.000399589538574219,0.0000747768241268641
505,-0.000323772430419922,0.0000665559459776889
506,-0.000405788421630859,0.0000555755702374781
507,-0.00035858154296875,0.0000460746602893145
508,-0.000373363494873047,0.0000541089376336736
509,-0.000369071960449219,0.0000577238904335358
510,-0.000401496887207031,0.0000590190733657569
511,-0.000368595123291016,0.0000804668885666453
512,-0.00048828125,0.0000613120622398477
513,-0.000488758087158203,0.0000541330945828185
514,-0.000332832336425781,0.000049743281184608
515,-0.000468254089355469,0.0000657672367365134
516,-0.000528335571289063,0.000070489693781864
517,-0.000508308410644531,0.0000696410834005628
518,-0.000460624694824219,0.0000676957637415987
519,-0.000507354736328125,0.0000799025996621544
520,-0.000607013702392578,0.0000632362303590285
521,-0.000557422637939453,0.0000479997651376157
522,-0.000542163848876953,0.0000623344907707554
523,-0.000578403472900391,0.000055118539208099
524,-0.000523090362548828,0.0000766284879683886
525,-0.000543594360351563,0.0000642811154525951
526,-0.000637531280517578,0.0000644312700964565
527,-0.000586032867431641,0.0000666293554901224
528,-0.000689029693603516,0.0000575483385482882
529,-0.000608921051025391,0.0000570264148708897
530,-0.000540256500244141,0.0000464848978118136
531,-0.000579833984375,0.0000488496338141518
532,-0.000520706176757813,0.0000564926270279689
533,-0.00058746337890625,0.0000637055157187056
534,-0.000596046447753906,0.0000565016821878845
535,-0.000656604766845703,0.000059589384032703
536,-0.000637054443359375,0.0000621609864825381
537,-0.000666141510009766,0.0000728266321711284
538,-0.000654220581054688,0.0000614565222152013
539,-0.000705718994140625,0.0000423520257148675
540,-0.000670433044433594,0.0000474291203586744
541,-0.000611305236816406,0.0000428484023714448
542,-0.000676631927490234,0.0000359095106741575
543,-0.000800609588623047,0.0000485519987246427
544,-0.000741004943847656,0.0000624565671159094
545,-0.000723838806152344,0.0000416011385737958
546,-0.000696659088134766,0.0000489786276120904
547,-0.000654697418212891,0.0000468442455559126
548,-0.000741958618164063,0.0000628087037673926
549,-0.000808238983154297,0.0000615267772799321
550,-0.000829696655273438,0.0000474902041132844
551,-0.000794410705566406,0.0000627507554641846
552,-0.000737190246582031,0.0000518624805968218
553,-0.000784873962402344,0.000041149140465212
554,-0.000834465026855469,0.0000471803802717744
555,-0.000765800476074219,0.0000555008546606914
556,-0.000788688659667969,0.0000481274935119231
557,-0.000772476196289063,0.0000543960230658501
558,-0.000845909118652344,0.0000603542870676003
559,-0.000757694244384766,0.0000585539721283578
560,-0.000800132751464844,0.000049167437571145
561,-0.000833511352539063,0.0000441840511650481
562,-0.000810623168945313,0.0000565016821878845
563,-0.000820159912109375,0.000033056888604044
564,-0.000773906707763672,0.0000344892067621346
565,-0.000882625579833984,0.0000428669709859857
566,-0.000834465026855469,0.000059575073536095
567,-0.000772476196289063,0.0000575522894159675
568,-0.000710487365722656,0.0000538963114751373
569,-0.000601768493652344,0.0000380529795424777
570,-0.000687122344970703,0.0000458173270557072
571,-0.000722885131835938,0.000047699210510476
572,-0.000955581665039063,0.0000453271279842993
573,-0.000559806823730469,0.000042270746722416
574,-0.000752449035644531,0.0000412959974966473
575,-0.000897884368896484,0.0000426449469411539
576,-0.000599861145019531,0.0000374863462831207
577,-0.000688552856445313,0.0000336178650986434
578,-0.000956535339355469,0.0000407207486619368
579,-0.000800609588623047,0.0000463808402615608
580,-0.000566959381103516,0.0000363836438311296
581,-0.0005340576171875,0.0000399463196585193
582,-0.0010371208190918,0.0000488949947381924
583,-0.000928401947021484,0.0000369702584046708
584,-0.0005950927734375,0.0000390671959118222
585,-0.000791072845458984,0.0000325273201364056
586,-0.000944614410400391,0.0000302364205429116
587,-0.000573635101318359,0.000043891040830593
588,-0.000957012176513672,0.0000456781625364333
589,-0.000909805297851563,0.0000541078870868846
590,-0.000840663909912109,0.000041921010692739
591,-0.000915050506591797,0.0000472490045645342
592,-0.000524044036865234,0.0000266063811290275
593,-0.000903606414794922,0.0000268181162115532
594,-0.000904560089111328,0.0000416441576457538
595,-0.000861167907714844,0.0000520965054195398
596,-0.000990390777587891,0.0000465704176834959
597,-0.000842094421386719,0.0000559202124313809
598,-0.000868320465087891,0.0000428556981438024
599,-0.000802516937255859,0.0000299379125339057
600,-0.000841140747070313,0.0000432517851043075
601,-0.000924110412597656,0.0000437340526115345
602,-0.000871181488037109,0.0000349955919989376
603,-0.000828742980957031,0.0000342502209486376
604,-0.000998497009277344,0.0000363375257374207
605,-0.000777721405029297,0.00004429198654073
606,-0.00103950500488281,0.0000442521838981404
607,-0.000957012176513672,0.0000331950248473587
608,-0.00100326538085937,0.0000375900745681884
609,-0.0009918212890625,0.0000504039657424389
610,-0.000921726226806641,0.000036830847773223
611,-0.00110435485839844,0.0000343728157272851
612,-0.00102043151855469,0.0000350694198764742
613,-0.00101995468139648,0.0000484406475036632
614,-0.00114583969116211,0.0000421899848092808
615,-0.00106143951416016,0.0000407493552312417
616,-0.00119113922119141,0.000050848596345452
617,-0.000994682312011719,0.0000341837704403951
618,-0.00105762481689453,0.0000322922981375052
619,-0.000986099243164063,0.0000478895038328668
620,-0.000927448272705078,0.0000398451589127508
621,-0.00111532211303711,0.0000524119743939055
622,-0.0010380744934082,0.0000429107080710416
623,-0.00114774703979492,0.0000356768529319952
624,-0.00109624862670898,0.0000409878914367546
625,-0.00118017196655273,0.00004062221620652
626,-0.00119209289550781,0.0000546014984447466
627,-0.00105476379394531,0.0000319187185870965
628,-0.00114202499389648,0.0000336001062795121
629,-0.00110292434692383,0.0000314703493277698
630,-0.00119924545288086,0.0000362239351946043
631,-0.00118255615234375,0.0000457378563218201
632,-0.00112676620483398,0.0000546930349690997
633,-0.0011448860168457,0.0000442984029724867
634,-0.00116300582885742,0.0000401039610668036
635,-0.00104188919067383,0.0000383520573951681
636,-0.00116300582885742,0.0000470995887929172
637,-0.00129508972167969,0.0000631012504183703
638,-0.00120878219604492,0.0000526251970723015
639,-0.00118446350097656,0.0000467178757070523
640,-0.00107288360595703,0.0000661292514686178
641,-0.000963687896728516,0.000046838177884222
642,-0.00100326538085937,0.0000562799163624285
643,-0.00108098983764648,0.0000505076128087177
644,-0.00110673904418945,0.000039710831344062
645,-0.00113964080810547,0.0000421744877808082
646,-0.00114059448242187,0.0000411829708562888
647,-0.00120830535888672,0.0000689306005757764
648,-0.00117111206054687,0.0000638961791992188
649,-0.00123214721679687,0.0000542013060134558
650,-0.00119543075561523,0.000032912128308749
651,-0.00115680694580078,0.0000342933447305925
652,-0.00116062164306641,0.0000382132252906673
653,-0.00107336044311523,0.0000377364721363956
654,-0.0012669563293457,0.0000347347313984238
655,0.000425815582275391,0.0000239986982959015
656,-0.0002593994140625,0.0000304793699810574
657,-0.00376701354980469,0.0000437366520381237
658,-0.000900745391845703,0.0000418062746452403
659,-0.0013127326965332,0.0000414059700557882
660,-0.00120353698730469,0.0000445772614292997
661,-0.00124168395996094,0.0000370846285665421
662,-0.00125694274902344,0.000037643719114629
663,-0.00121021270751953,0.0000368408782758977
664,-0.00128984451293945,0.0000456320952807245
665,-0.00124311447143555,0.0000328247925280057
666,-0.00124263763427734,0.0000304392464990704
667,-0.00120830535888672,0.0000336812130156434
668,-0.00120925903320312,0.0000406746568017951
669,-0.00121736526489258,0.0000527115387170238
670,-0.00120449066162109,0.0000471647151342914
671,-0.00119161605834961,0.0000447528883999872
672,-0.00121355056762695,0.0000455884753023049
673,-0.00128984451293945,0.0000389892748149358
674,-0.00124788284301758,0.0000391369743928083
675,-0.00124883651733398,0.0000323617544192451
676,-0.00120353698730469,0.0000351261049618756
677,-0.001220703125,0.0000381171586832263
678,-0.00119161605834961,0.000038941863442427
679,-0.00118112564086914,0.0000354883472182076
680,-0.00119400024414062,0.0000400756030084797
681,-0.00121164321899414,0.0000366459516261563
682,-0.00122785568237305,0.0000351139658613177
683,-0.00124740600585937,0.0000310365683672543
684,-0.00117874145507812,0.0000403385635380028
685,-0.00126028060913086,0.0000372848850294583
686,-0.00127315521240234,0.0000295754379414763
687,-0.00123357772827148,0.0000479179826522724
688,-0.00122785568237305,0.0000421839214326691
689,-0.00127601623535156,0.0000396814761048936
690,-0.0013127326965332,0.0000393780601744675
691,-0.00118637084960937,0.0000523207928599978
692,-0.00124740600585937,0.0000433436845843741
693,-0.00123167037963867,0.0000478301184973661
694,-0.00122785568237305,0.0000345706939697266
695,-0.00125312805175781,0.0000240672897973917
696,-0.00125360488891602,0.0000356880041890166
697,-0.00118732452392578,0.0000390402688248281
698,-0.00121307373046875,0.0000382585681340246
699,-0.00126028060913086,0.0000338083934320034
700,-0.00122261047363281,0.0000390060373433189
701,-0.00127601623535156,0.0000363742686167594
702,-0.0012516975402832,0.0000544033375193522
703,-0.00121927261352539,0.0000506278919497104
704,-0.00121593475341797,0.0000538424958736239
705,-0.00121307373046875,0.000044441888255762
706,-0.00125837326049805,0.0000346954331463859
707,-0.0012812614440918,0.0000482195313652309
708,-0.00125598907470703,0.0000449202368952008
709,-0.00124979019165039,0.0000530512144501549
710,-0.00127363204956055,0.0000397687621502639
711,-0.00130796432495117,0.0000401959865869667
712,-0.00127935409545898,0.0000530233486009283
713,-0.00126743316650391,0.0000343686811490867
714,-0.00131702423095703,0.0000391500440122719
715,-0.0013270378112793,0.0000544242305411752
716,-0.00140476226806641,0.00004470968203487
717,-0.00131320953369141,0.0000490702274596708
718,-0.00137615203857422,0.000040095455755252
719,-0.00135898590087891,0.0000369994602180199
720,-0.00134134292602539,0.0000405262495321899
721,-0.00134372711181641,0.0000297091936336414
722,-0.00133419036865234,0.0000312528473308475
723,-0.00131368637084961,0.0000608065541140108
724,-0.00133514404296875,0.0000684174090151755
725,-0.00132846832275391,0.0000588444874506099
726,-0.00140237808227539,0.0000426682671229329
727,-0.00142621994018555,0.0000425254809218867
728,-0.00138378143310547,0.0000487681109449219
729,-0.00137042999267578,0.0000540090444486961
730,-0.00140810012817383,0.0000464041204343443
731,-0.00140857696533203,0.000046088229256402
732,-0.00152111053466797,0.0000544534673042515
733,-0.00146198272705078,0.0000525343856205624
734,-0.00148630142211914,0.0000445874615922223
735,-0.00155401229858398,0.0000348939254312052
736,-0.00156545639038086,0.0000430297650766664
737,-0.0014948844909668,0.0000332181343083263
738,-0.00160455703735352,0.0000430871913681315
739,-0.00151968002319336,0.0000519544664877268
740,-0.00152397155761719,0.0000455185963917656
741,-0.00164127349853516,0.0000560461178517143
742,-0.0015411376953125,0.0000664961342210548
743,-0.0015721321105957,0.0000589766801379396
744,-0.00154781341552734,0.0000441003484442434
745,-0.00155448913574219,0.0000558490114481023
746,-0.00151538848876953,0.0000597855683084773
747,-0.00150585174560547,0.000058177064602902
748,-0.00152587890625,0.0000422620049693037
749,-0.00140953063964844,0.0000477278028766045
750,-0.00146913528442383,0.0000429179932518474
751,-0.00146961212158203,0.000035070230308501
752,-0.00144720077514648,0.0000300274925688133
753,-0.00144290924072266,0.0000400429664139119
754,-0.00138378143310547,0.0000404918704633553
755,-0.00146198272705078,0.0000302678935801559
756,-0.00138759613037109,0.0000278674503404305
757,-0.00140190124511719,0.0000375530075828526
758,-0.00148105621337891,0.0000577504724777324
759,-0.00143241882324219,0.0000605648893261429
760,-0.00141143798828125,0.0000467409880136941
761,-0.00136613845825195,0.0000412973739610744
762,-0.00146055221557617,0.0000525354676325211
763,-0.00132417678833008,0.0000497044129884705
764,-0.0013422966003418,0.0000570453507566001
765,-0.00129032135009766,0.0000531496993755065
766,-0.0013890266418457,0.0000391100953479467
767,-0.00145673751831055,0.0000494211293032767
768,-0.00139665603637695,0.0000536807253651607
769,-0.00129985809326172,0.0000462249295832646
770,-0.00130701065063477,0.0000532682812064911
771,-0.00135612487792969,0.0000483713635030953
772,-0.00133991241455078,0.00004340135037311
773,-0.00126838684082031,0.0000479973965918031
774,-0.0013575553894043,0.0000407333101174963
775,-0.00133132934570312,0.0000496517781755421
776,-0.00137186050415039,0.0000410682490620069
777,-0.00127410888671875,0.0000410744771334801
778,-0.00126457214355469,0.0000478859427895598
779,-0.00127887725830078,0.0000402369762282597
780,-0.00130748748779297,0.0000369848621934229
781,-0.00126552581787109,0.0000478669460843435
782,-0.00123691558837891,0.0000376210617369481
783,-0.00129556655883789,0.0000368200426375401
784,-0.00127506256103516,0.0000514564519816168
785,-0.00141000747680664,0.0000554065490623338
786,-0.00132894515991211,0.0000561909649680662
787,-0.00127601623535156,0.0000562182718398647
788,-0.00130367279052734,0.0000414786663076343
789,-0.00128364562988281,0.0000461387693413821
790,-0.00128364562988281,0.0000410744771334801
791,-0.0014042854309082,0.0000487552878149772
792,-0.00131464004516602,0.0000579773984490079
793,-0.0013279914855957,0.0000444572342121088
794,-0.00128507614135742,0.0000465069036558417
795,-0.00132322311401367,0.0000516262939164295
796,-0.00133562088012695,0.0000532031473278865
797,-0.00140476226806641,0.0000628882954981257
798,-0.00138044357299805,0.0000545150220111921
799,-0.00141239166259766,0.0000686976564920502
800,-0.00132322311401367,0.0000447249361062912
801,-0.00134658813476562,0.0000419731828761297
802,-0.0013728141784668,0.000067149440486982
803,-0.00132608413696289,0.0000555540870110266
804,-0.00131368637084961,0.0000659191801480844
805,-0.00138187408447266,0.0000613584005494687
806,-0.00134849548339844,0.0000496529230038974
807,-0.00134468078613281,0.0000442855691793116
808,-0.00136995315551758,0.0000492078851062784
809,-0.00141477584838867,0.0000489995135265934
810,-0.00135564804077148,0.0000344916788999586
811,-0.00135326385498047,0.0000336617989948747
812,-0.00139331817626953,0.0000520484740993277
813,-0.00139665603637695,0.000039285565612446
814,-0.00135278701782227,0.0000381275962256514
815,-0.00139188766479492,0.0000408733174616295
816,-0.00149822235107422,0.0000708901472325056
817,-0.00140523910522461,0.0000603071772308423
818,-0.00142717361450195,0.0000499098417280433
819,-0.00152301788330078,0.0000539195094660076
820,-0.00139331817626953,0.0000450945281195684
821,-0.00142335891723633,0.0000399747694304174
822,-0.00140619277954102,0.0000517132041525719
823,-0.00144624710083008,0.0000346946139594674
824,-0.00146198272705078,0.0000375302954418422
825,-0.00153112411499023,0.0000491685936767584
826,-0.00149440765380859,0.0000295311993011208
827,-0.0015254020690918,0.000026413938045993
828,-0.00157356262207031,0.0000370079090740386
829,-0.00159645080566406,0.000064988199093051
830,-0.00161218643188477,0.0000740526724996463
831,-0.00164794921875,0.0000664636424408948
832,-0.00168514251708984,0.0000485929585380224
833,-0.00162696838378906,0.0000393751730082363
834,-0.00164031982421875,0.0000524867550118142
835,-0.00166797637939453,0.0000533120149970005
836,-0.00171470642089844,0.0000543939330413334
837,-0.00160837173461914,0.0000510928289270006
838,-0.00171804428100586,0.0000618180342875314
839,-0.00160121917724609,0.0000513370068475218
840,-0.00159692764282227,0.0000619814941759946
841,-0.00166225433349609,0.0000721333431142833
842,-0.00166845321655273,0.0000621060949522588
843,-0.0016021728515625,0.0000434615555260583
844,-0.00168323516845703,0.0000470392062281647
845,-0.0016322135925293,0.0000538087017413923
846,-0.00163030624389648,0.0000647305344568379
847,-0.00157546997070312,0.0000468782100037836
848,-0.0015711784362793,0.0000499872284317044
849,-0.00160646438598633,0.0000757661084121079
850,-0.00156497955322266,0.0000542924702739345
851,-0.00151634216308594,0.0000486373901367188
852,-0.00152063369750977,0.0000529611334873765
853,-0.00155448913574219,0.0000428437589603575
854,-0.00150156021118164,0.0000460314596928609
855,-0.00156211853027344,0.0000563616679988926
856,-0.0015568733215332,0.0000547574347287188
857,-0.00153970718383789,0.00005197853113021
858,-0.00148868560791016,0.0000499622046736683
859,-0.00149822235107422,0.0000614047038904604
860,-0.0014338493347168,0.0000524531711119626
861,-0.00148773193359375,0.0000475440363707047
862,-0.00148296356201172,0.0000535216521612661
863,-0.00140285491943359,0.0000502899333063295
864,-0.00138235092163086,0.0000576943404646521
865,-0.00144338607788086,0.0000583711789029212
866,-0.00147628784179687,0.0000606446139429898
867,-0.00138998031616211,0.0000641660542259382
868,-0.00140523910522461,0.0000492967528660587
869,-0.00136518478393555,0.0000485028012899606
870,-0.00142335891723633,0.0000484159984610666
871,-0.00146722793579102,0.000052140131860564
872,-0.00133132934570312,0.000050945760424048
873,-0.00132131576538086,0.0000713202390162887
874,-0.00128316879272461,0.0000743254385696362
875,-0.00136184692382812,0.0000630922414880361
876,-0.00135707855224609,0.0000671832927983111
877,-0.00130939483642578,0.0000546930349690997
878,-0.00139617919921875,0.0000493013649961961
879,-0.00126838684082031,0.0000537854559585046
880,-0.00130891799926758,0.0000595053799893543
881,-0.0013427734375,0.0000646655183623891
882,-0.0013270378112793,0.0000492113504909778
883,-0.00132083892822266,0.0000425194653878432
884,-0.00124120712280273,0.0000453634814536866
885,-0.00124692916870117,0.0000753915588028919
886,-0.00129985809326172,0.0000832241365311274
887,-0.00127506256103516,0.0000686248028469315
888,-0.00133037567138672,0.0000576420984979897
889,-0.00120830535888672,0.0000688282683776059
890,-0.00129842758178711,0.0000606933350200482
891,-0.00125360488891602,0.0000702085031170287
892,-0.00128507614135742,0.0000598340388632709
893,-0.00125932693481445,0.0000664277119832289
894,-0.00136232376098633,0.0000539553412883046
895,-0.00131702423095703,0.0000686761395953425
896,-0.00127696990966797,0.0000648007487463348
897,-0.00130081176757812,0.0000728063355458031
898,-0.00131130218505859,0.0000584830617602637
899,-0.00131559371948242,0.0000602137910168242
900,-0.00125312805175781,0.0000515315161381994
901,-0.00129795074462891,0.0000495715744893455
902,-0.00134086608886719,0.0000565610078895901
903,-0.00125312805175781,0.0000647568737370754
904,-0.00135231018066406,0.0000516207883449774
905,-0.00138616561889648,0.0000560085789254874
906,-0.00135612487792969,0.0000670749052626631
907,-0.00134086608886719,0.0000489263738188959
908,-0.00129842758178711,0.0000688827544393324
909,-0.00141382217407227,0.0000775091430255882
910,-0.00143194198608398,0.0000580714445087799
911,-0.00144529342651367,0.0000627108849440521
912,-0.00150012969970703,0.000070798677072005
913,-0.00142955780029297,0.0000942450277601658
914,-0.00146102905273437,0.0000676470442219798
915,-0.00148439407348633,0.0000549129282020923
916,-0.00144195556640625,0.000040369553115428
917,-0.00156593322753906,0.0000418755612313085
918,-0.00149345397949219,0.0000837375469965166
919,-0.00164604187011719,0.0000743483787563684
920,-0.00164318084716797,0.0000642899577866332
921,-0.00159072875976562,0.0000712596400052211
922,-0.0017542839050293,0.0000711111140529909
923,-0.00187778472900391,0.0000599431913817524
924,-0.0019073486328125,0.0000816130164154839
925,-0.00197172164916992,0.0000675797872514612
926,-0.0019993782043457,0.0000382838178857213
927,-0.00206327438354492,0.000045093267562784
928,-0.00215387344360352,0.0000608794267101983
929,-0.00221967697143555,0.0000723536557708384
930,-0.0022425651550293,0.0000897239786943439
931,-0.00239896774291992,0.0000657914330244661
932,-0.00242853164672852,0.0000726093204244622
933,-0.00253772735595703,0.0000586277054955704
934,-0.00278234481811523,0.0000846382597795729
935,-0.00261926651000977,0.0000893786703471388
936,-0.00287723541259766,0.0000681226593417812
937,-0.0028691291809082,0.0000851364670736304
938,-0.00298261642456055,0.0000733275710553783
939,-0.00317573547363281,0.000050624523531174
940,-0.00330924987792969,0.0000437301531819328
941,-0.00341320037841797,0.0000904584094037201
942,-0.00336599349975586,0.0000880148914806518
943,-0.00346899032592773,0.0000727047674276196
944,-0.00368261337280273,0.0000646268291363326
945,-0.00364208221435547,0.0000784741271101788
946,-0.00395011901855469,0.0000652169607758679
947,-0.00398731231689453,0.0000583692312168097
948,-0.00419473648071289,0.0000720781597309643
949,-0.0043792724609375,0.0000796931709902446
950,-0.00455236434936523,0.0000851791875013699
951,-0.00467205047607422,0.0000944546890156415
952,-0.00491762161254883,0.0000839450114618888
953,-0.00509834289550781,0.0000805558483112793
954,-0.00540542602539063,0.0000760207649839215
955,-0.00560188293457031,0.0000796061034612191
956,-0.00571966171264648,0.0000938848651393415
957,-0.00618457794189453,0.0000992302594410828
958,-0.00622415542602539,0.000113557345112888
959,-0.00651407241821289,0.0000894981555034191
960,-0.00649118423461914,0.000109419323038204
961,-0.00650167465209961,0.000121058427534055
962,-0.00665283203125,0.000147539303889619
963,-0.00661802291870117,0.000113105934747643
964,-0.00656747817993164,0.000139552893374031
965,-0.00636863708496094,0.000122527666435649
966,-0.00658559799194336,0.0000915030503563765
967,-0.00635099411010742,0.0000810272477529832
968,-0.00617074966430664,0.000111685808564991
969,-0.00612115859985352,0.000101585341627946
970,-0.00614452362060547,0.0000868079394499121
971,-0.00582122802734375,0.000103915497372384
972,-0.00598764419555664,0.000119167320493005
973,-0.00565052032470703,0.000143108356480405
974,-0.00556612014770508,0.000138387968896261
975,-0.00536918640136719,0.000104171186199465
976,-0.00521564483642578,0.000121911884855507
977,-0.00537681579589844,0.000117700566257794
978,-0.00500726699829102,0.000139412703068578
979,-0.00458860397338867,0.000178058937725137
980,-0.0043940544128418,0.000160029846630315
981,-0.00462722778320313,0.000144348618343293
982,-0.00421667098999023,0.000177316755667055
983,-0.00379180908203125,0.000125334721801351
984,-0.00411081314086914,0.000141153464115265
985,-0.00368261337280273,0.000141635887532099
986,-0.00369405746459961,0.000164900189792514
987,-0.00359153747558594,0.000147320304331777
988,-0.00342130661010742,0.000187027180458314
989,-0.0032496452331543,0.000133074307581218
990,-0.00278043746948242,0.000211333023508541
991,-0.00286436080932617,0.0001893421827129
992,-0.00273799896240234,0.000168840759096762
993,-0.00272512435913086,0.00016957981299482
994,-0.00245857238769531,0.000204780325493799
995,-0.00230932235717773,0.000221478412594594
996,-0.00215959548950195,0.000208416570734371
997,-0.00205230712890625,0.000203582105205228
998,-0.00201845169067383,0.000212940761367079
999,-0.00116539001464844,0.000232418863944176
1000,-0.00159406661987305,0.000197380634929431
1001,-0.00169515609741211,0.000218505912652888
1002,-0.00160932540893555,0.00021203764073259
1003,-0.0013585090637207,0.000235945270551289
1004,-0.00186777114868164,0.000220935693458873
1005,-0.00129270553588867,0.000205259427469067
1006,-0.00138711929321289,0.000326229109710738
1007,-0.00140142440795898,0.000260484054657992
1008,-0.000672817230224609,0.000308949267617946
1009,-0.000841617584228516,0.000194839187157004
1010,-0.000538349151611328,0.000255285628953611
1011,-0.000836372375488281,0.000249862670898437
1012,-0.000649929046630859,0.000264736967042047
1013,-0.000760555267333984,0.000247492725499161
1014,-0.00111913681030273,0.000243853608936422
1015,-0.000478744506835938,0.000240204795706652
1016,-0.000502109527587891,0.000260064730408877
1017,-0.000383853912353516,0.000307763571953277
1018,-0.000555515289306641,0.000276729929514826
1019,-0.000712394714355469,0.000248914477408565
1020,-0.000345230102539062,0.000186428084079493
1021,-0.000609397888183594,0.000198309230507966
1022,-0.000619411468505859,0.000260756253816748
1023,-0.000225543975830078,0.000307698551271471
1024,-0.000566482543945313,0.000336126568174907
1025,-0.000411510467529297,0.000380849333777475
1026,-0.000374317169189453,0.000330626658325507
1027,-0.000277519226074219,0.000276631314581654
1028,-0.000474452972412109,0.000314741422309024
1029,-0.000485420227050781,0.000373061010082936
1030,-0.000500202178955078,0.000329899642304983
1031,-0.000574588775634766,0.000460125868276833
1032,-0.000657558441162109,0.000320309660044152
1033,-0.000654220581054688,0.000294381203822071
1034,-0.000283241271972656,0.000413177677883965
1035,-0.00083160400390625,0.000336023731655527
1036,-0.00142335891723633,0.00045984114668372
1037,-0.00112581253051758,0.000352885271110526
1038,0.0000119209289550781,0.000374375174820681
1039,-0.00143766403198242,0.000336888742532071
1040,-0.00118875503540039,0.000426879793908337
1041,-0.000656604766845703,0.000525155117472932
1042,-0.000227928161621094,0.000548322095609221
1043,-0.00138711929321289,0.000336931934781043
1044,-0.00145292282104492,0.000442455552080906
1045,-0.00119113922119141,0.000513101598430187
1046,-0.0013427734375,0.000514644934951764
1047,-0.000748634338378906,0.000526248514212677
1048,-0.00108003616333008,0.000525612129436284
1049,-0.00110149383544922,0.000572395292928479
1050,-0.00180578231811523,0.000545515046923641
1051,-0.000631809234619141,0.00055842008508709
1052,-0.00156974792480469,0.000596033477642087
1053,-0.00133848190307617,0.000500278312554803
1054,-0.00114202499389648,0.000634273007784054
1055,-0.00328445434570312,0.000770020998346821
1056,-0.00197362899780273,0.000562017679390009
1057,-0.00287723541259766,0.000706244608027206
1058,-0.00211429595947266,0.000886685330857686
1059,-0.00165510177612305,0.000698579293350806
1060,-0.00181961059570312,0.000628499593376176
1061,-0.00352191925048828,0.000648150631202133
1062,-0.00159311294555664,0.00084607199097584
1063,-0.00139999389648437,0.000796148430581386
1064,-0.00230646133422852,0.000872740709995344
1065,-0.00261688232421875,0.00108884050139839
1066,-0.0029149055480957,0.00110262569056756
1067,-0.00147533416748047,0.000824680732230936
1068,-0.00249767303466797,0.000636345931911067
1069,-0.00268173217773437,0.000804476151210455
1070,-0.00221395492553711,0.000936273129677884
1071,-0.00381755828857422,0.00114063913519475
1072,-0.00102806091308594,0.00107303575920344
1073,-0.001678466796875,0.000708034942370246
1074,-0.00232601165771484,0.000541834743932411
1075,-0.00179004669189453,0.000703188509192169
1076,-0.0028080940246582,0.0012699676643877
1077,-0.00210905075073242,0.00102364755251221
1078,-0.00223779678344727,0.000975593443718521
1079,-0.000490665435791016,0.000962423247909155
1080,-0.00361871719360352,0.00104316452239197
1081,-0.00299739837646484,0.00115239220048591
1082,-0.00389957427978516,0.00126670927238283
1083,-0.00130128860473633,0.0010963522234497
1084,-0.00161075592041016,0.00126187510156466
1085,-0.00394582748413086,0.001197790643725
1086,-0.00327777862548828,0.00132083307533482
1087,-0.00494575500488281,0.00183261169356338
1088,-0.00262689590454102,0.00167423060506877
1089,-0.000782966613769531,0.00170513127430931
1090,-0.00381803512573242,0.00149197096776473
1091,-0.00569295883178711,0.00137984513206357
1092,-0.000672340393066406,0.00133180473169124
1093,-0.00508260726928711,0.00154784602696726
1094,-0.000432968139648438,0.00170574562535584
1095,-0.00555229187011719,0.00242004586949699
1096,-0.00260496139526367,0.0018233135620106
1097,-0.00458765029907227,0.00184666023466051
1098,-0.00766611099243164,0.00255346614328112
1099,-0.00362205505371094,0.00256129580790494
1100,-0.00550079345703125,0.00281333341436269
