Wavelength (nm),Absorbance (AU),Std.Dev.
190,0.309865474700928,0.0000663968989725336
191,0.304447650909424,0.000040023087630736
192,0.299814701080322,0.0000400678010238371
193,0.295741558074951,0.0000627942217049987
194,0.291828632354736,0.0000709782961671784
195,0.288251876831055,0.0000752602526501629
196,0.284981727600098,0.0000491084400952488
197,0.281683921813965,0.0000576637895882835
198,0.277727603912354,0.000061705749885828
199,0.273271560668945,0.0000423191298897865
200,0.268677711486816,0.0000459857463618867
201,0.263991832733154,0.000050228859261565
202,0.259536266326904,0.0000494176786291913
203,0.254961967468262,0.0000601108040480754
204,0.250044345855713,0.000060511368100034
205,0.244739055633545,0.0000487844264172934
206,0.238761901855469,0.0000625438782961639
207,0.232206344604492,0.0000472706546963162
208,0.224881649017334,0.0000581037376851189
209,0.217144966125488,0.0000461634029626466
210,0.208826065063477,0.000039818044136618
211,0.19972038269043,0.0000480411957863928
212,0.190465450286865,0.0000521303190945299
213,0.180703639984131,0.0000449177059637457
214,0.170803070068359,0.0000489542494495796
215,0.160718441009521,0.000031150826688434
216,0.150662899017334,0.0000322553111194012
217,0.140671253204346,0.000053629873275248
218,0.130894184112549,0.0000447351025975532
219,0.1214599609375,0.0000341346803091642
220,0.112380027770996,0.00003155783101611
221,0.103645801544189,0.0000305124554208891
222,0.0955185890197754,0.0000258015832845264
223,0.0878853797912598,0.000029765583281266
224,0.0808353424072266,0.0000306022111248813
225,0.0743379592895508,0.0000319560951906583
226,0.0683178901672363,0.0000378492779604854
227,0.0629372596740723,0.0000316387832594559
228,0.0579752922058106,0.0000290572490447567
229,0.053675651550293,0.0000372421726031621
230,0.0496659278869629,0.00004218055251349
231,0.0461711883544922,0.0000422478798548444
232,0.0430035591125488,0.0000395983043737404
233,0.0401277542114258,0.0000418748825075152
234,0.0376853942871094,0.0000382481663325414
235,0.0355973243713379,0.000028116718297246
236,0.0337615013122559,0.0000351972366905763
237,0.0321855545043945,0.0000328516232550433
238,0.0308551788330078,0.0000393838338719692
239,0.0297646522521973,0.0000313708481035685
240,0.0288190841674805,0.0000394624163364422
241,0.0279359817504883,0.0000354394602065205
242,0.0272154808044434,0.00003207062239601
243,0.026576042175293,0.0000324240502070707
244,0.025935173034668,0.0000362929153119813
245,0.0254554748535156,0.0000263827152497728
246,0.0249910354614258,0.000024698484761312
247,0.0245614051818848,0.0000383350089058092
248,0.0241827964782715,0.0000311563005487818
249,0.023888111114502,0.000029046487643802
250,0.0235595703125,0.0000172173874138649
251,0.0231566429138184,0.0000269302201909977
252,0.0229620933532715,0.0000445619568071631
253,0.0226302146911621,0.0000406571841188282
254,0.0224447250366211,0.0000526251970723015
255,0.0221753120422363,0.0000610779820638919
256,0.0220232009887695,0.0000347388224097328
257,0.0218362808227539,0.0000257641033949774
258,0.0215520858764648,0.0000334542982881191
259,0.0213894844055176,0.0000335823380692654
260,0.0212268829345703,0.0000415984057021506
261,0.0210919380187988,0.0000484019076579564
262,0.0209507942199707,0.0000487634483787326
263,0.0207386016845703,0.0000394631365520983
264,0.0205397605895996,0.0000395293402558752
265,0.020411491394043,0.0000472562223772246
266,0.0202555656433105,0.0000347731679029551
267,0.0199861526489258,0.0000408162580349125
268,0.0199480056762695,0.0000523674889556567
269,0.0196022987365723,0.0000517505636317916
270,0.0194354057312012,0.0000509256727211876
271,0.0192465782165527,0.0000425428543533239
272,0.0190925598144531,0.0000533865996452379
273,0.0189447402954102,0.0000440616627894595
274,0.0187711715698242,0.0000386657310736279
275,0.0185117721557617,0.0000444290959097799
276,0.0183010101318359,0.0000382645107510431
277,0.0181636810302734,0.0000338403238218821
278,0.0179257392883301,0.0000407828203520458
279,0.0177168846130371,0.0000407946659992195
280,0.0175485610961914,0.0000393325626894022
281,0.0172214508056641,0.000048432432549998
282,0.0170102119445801,0.000043239955286398
283,0.0167031288146973,0.0000344347748277298
284,0.0164837837219238,0.0000266154595271881
285,0.0163030624389648,0.0000260864138756588
286,0.0160083770751953,0.0000390402688248281
287,0.0157008171081543,0.0000496277306795414
288,0.0154585838317871,0.0000325797047314408
289,0.0152106285095215,0.0000242888744623314
290,0.0149679183959961,0.000029304640425019
291,0.0147128105163574,0.0000333470808793512
292,0.0143771171569824,0.0000337520215304129
293,0.0141592025756836,0.0000376444741256927
294,0.0139398574829102,0.0000405087128365467
295,0.0137290954589844,0.0000354955543561417
296,0.0134649276733398,0.0000323503351550851
297,0.0133252143859863,0.0000431017008389336
298,0.013089656829834,0.000031318256535817
299,0.0128860473632812,0.000040540273426835
300,0.012629508972168,0.0000422922571858512
301,0.0125255584716797,0.0000388593029021027
302,0.0122976303100586,0.0000395429989508017
303,0.0120720863342285,0.0000462667209499475
304,0.0119528770446777,0.0000328913962573634
305,0.0118117332458496,0.0000433371267986365
306,0.0116639137268066,0.0000489751457603819
307,0.0114669799804687,0.0000435673667163865
308,0.0112767219543457,0.0000437535445466341
309,0.0111289024353027,0.0000463109295266062
310,0.0110344886779785,0.0000444738530226545
311,0.0108132362365723,0.0000441080815036203
312,0.0107417106628418,0.0000296013733083341
313,0.0105605125427246,0.0000363555109350908
314,0.0104508399963379,0.0000394134107966839
315,0.0103111267089844,0.0000455448135474129
316,0.0101070404052734,0.0000341646419985316
317,0.0099945068359375,0.0000413125120429121
318,0.00979137420654297,0.0000409691648941242
319,0.00972461700439453,0.0000490748608790154
320,0.00953388214111328,0.0000312146286649883
321,0.00942516326904297,0.0000429630014925419
322,0.00925445556640625,0.0000294459010660794
323,0.00912618637084961,0.0000430871913681315
324,0.00904750823974609,0.0000485777489246629
325,0.00894546508789063,0.0000309659754046755
326,0.00881004333496094,0.000035038609569384
327,0.00868654251098633,0.0000600776973925089
328,0.00846147537231445,0.000040199521822951
329,0.00836038589477539,0.0000427919840061438
330,0.00827741622924805,0.0000350523964755103
331,0.00817966461181641,0.0000418429700706313
332,0.00805473327636719,0.0000505638536260976
333,0.00787830352783203,0.0000632811596915401
334,0.00773954391479492,0.0000379310397271932
335,0.00765752792358398,0.0000286568817613168
336,0.0075688362121582,0.0000332856587288882
337,0.00738763809204102,0.0000304476488123618
338,0.00729465484619141,0.0000352698366646335
339,0.0071406364440918,0.0000394025925459893
340,0.0070033073425293,0.0000425769124161209
341,0.0069732666015625,0.0000498095157535066
342,0.00693893432617188,0.0000523653179675764
343,0.00678348541259766,0.0000469291105854686
344,0.00659608840942383,0.0000508955263013069
345,0.00648641586303711,0.0000568926880782771
346,0.00640630722045898,0.0000588039017084808
347,0.00633955001831055,0.0000396563995617746
348,0.0061802864074707,0.0000510037471245596
349,0.00616836547851563,0.0000586839133686839
350,0.00605106353759766,0.0000488612688348751
351,0.00591278076171875,0.0000474327156982476
352,0.00580930709838867,0.000050685120814647
353,0.00577402114868164,0.000042683584876481
354,0.00570011138916016,0.0000503498043129694
355,0.00556135177612305,0.0000560166975816526
356,0.0054011344909668,0.000051102840912255
357,0.00529289245605469,0.0000425795824846307
358,0.00514698028564453,0.0000358263087392079
359,0.00510311126708984,0.0000461350731637449
360,0.00502777099609375,0.0000451398847194421
361,0.00495529174804688,0.0000458780787912702
362,0.00481367111206055,0.0000655091653916882
363,0.00467920303344727,0.0000863246479226906
364,0.00452041625976563,0.0000803594409902361
365,0.00445032119750977,0.0000654675017249393
366,0.00444698333740234,0.0000553511209440227
367,0.00438642501831055,0.0000730448538088131
368,0.00434017181396484,0.0000703589344841865
369,0.00426721572875977,0.0000622194840712816
370,0.00409317016601563,0.0000569705672265462
371,0.00425529479980469,0.0000795589616384521
372,0.00406980514526367,0.0000557155194177415
373,0.00413703918457031,0.0000668508009737858
374,0.00416660308837891,0.0000845858584230968
375,0.00407981872558594,0.0000613584005494687
376,0.00380945205688477,0.0000629063704835529
377,0.0038752555847168,0.0000604653207573519
378,0.00394439697265625,0.0000642775781783895
379,0.00390243530273437,0.0000522718801823822
380,0.00368070602416992,0.0000561221332370516
381,0.00365638732910156,0.0000702165990226744
382,0.00367450714111328,0.0000553696031486485
383,0.00352191925048828,0.000079901176831728
384,0.00355291366577148,0.0000789939437480118
385,0.0035557746887207,0.00006192644354414
386,0.00344181060791016,0.0000741615927235678
387,0.00352287292480469,0.00010818425287335
388,0.00326919555664062,0.0000891366687434992
389,0.00307321548461914,0.0000594595095797705
390,0.00334310531616211,0.0000654292867242581
391,0.00326442718505859,0.0000543751192056263
392,0.00320720672607422,0.0000609344903973766
393,0.00292730331420898,0.0000766581544379353
394,0.00292634963989258,0.000101974053919224
395,0.00288295745849609,0.0000895489518952171
396,0.00295543670654297,0.0000578222812638433
397,0.00301074981689453,0.0000412381445031029
398,0.00293540954589844,0.0000536097309972961
399,0.00256729125976562,0.0000510972789404155
400,0.00279712677001953,0.0000675949259044771
401,0.00257968902587891,0.0000700609941798466
402,0.00262641906738281,0.0000704687240673491
403,0.00269460678100586,0.0000845576288574122
404,0.0025172233581543,0.0000776234655194269
405,0.00270700454711914,0.0000737419068230564
406,0.00227928161621094,0.0000814708066336576
407,0.0024266242980957,0.000069105204618279
408,0.0025334358215332,0.0000691035594716999
409,0.00236177444458008,0.0000667350596081744
410,0.00234270095825195,0.000077963969021747
411,0.00234222412109375,0.0000647796924504917
412,0.00230789184570312,0.0000536563647525827
413,0.00220537185668945,0.0000704622705919872
414,0.002105712890625,0.0000546764033631293
415,0.00207614898681641,0.0000567526369386578
416,0.00214433670043945,0.000090563917873446
417,0.00211191177368164,0.0000679873477059185
418,0.00204753875732422,0.0000812738127892455
419,0.00204038619995117,0.0000794245255037575
420,0.002197265625,0.00006152308164505
421,0.00227117538452148,0.0000468830600591485
422,0.00179100036621094,0.0000398751064246169
423,0.00184345245361328,0.0000523153603763769
424,0.00174570083618164,0.0000719281628504114
425,0.00179243087768555,0.0000556869452612775
426,0.00180530548095703,0.0000802461828514464
427,0.00203132629394531,0.0000728750090039622
428,0.00168418884277344,0.0000657136275365914
429,0.00201416015625,0.000090664287978364
430,0.00162887573242187,0.000072915558373293
431,0.00137758255004883,0.0000511428692533106
432,0.00154304504394531,0.0000455410691635082
433,0.00187015533447266,0.0000504715857966465
434,0.0014500617980957,0.0000668644044334523
435,0.00140523910522461,0.0000573980040622905
436,0.00146293640136719,0.0000728125812638849
437,0.00135135650634766,0.0000653371315290676
438,0.00160026550292969,0.0000595807981472006
439,0.00139570236206055,0.0000410454047147379
440,0.00151872634887695,0.0000590951121594045
441,0.00165843963623047,0.0000662065685200089
442,0.00113248825073242,0.0000563001129884868
443,0.00138616561889648,0.0000536764895310686
444,0.0012054443359375,0.0000548497473706773
445,0.00122451782226562,0.0000474590731993436
446,0.00129413604736328,0.0000449948353274744
447,0.00116300582885742,0.000060481300337631
448,0.00116539001464844,0.0000659881296780969
449,0.0011754035949707,0.0000625693211069256
450,0.00109958648681641,0.0000404771276380263
451,0.00116634368896484,0.0000443919772601592
452,0.00113153457641602,0.0000604794206061473
453,0.00108861923217773,0.0000690311342072493
454,0.00114631652832031,0.0000517505636317916
455,0.0010676383972168,0.0000507265993832729
456,0.00103473663330078,0.0000746748912971774
457,0.00113153457641602,0.0000585141563355562
458,0.00108814239501953,0.0000478194213048693
459,0.000899791717529297,0.0000454498607412802
460,0.000844478607177734,0.0000438430958327202
461,0.000940322875976563,0.0000467178757070523
462,0.00078582763671875,0.0000613120622398477
463,0.00113916397094727,0.0000432254922233947
464,0.000980854034423828,0.0000415690159848619
465,0.000828266143798828,0.0000593121025293969
466,0.000578403472900391,0.0000871816908686472
467,0.0007171630859375,0.0000704461343171077
468,0.000741004943847656,0.0000728047740325635
469,0.000597953796386719,0.0000672205106502722
470,0.000752449035644531,0.0000644929968669703
471,0.000752925872802734,0.0000543447943259715
472,0.000765800476074219,0.0000516251928491104
473,0.000813484191894531,0.0000590007709359453
474,0.000731468200683594,0.0000585491179935265
475,0.000830650329589844,0.0000493267240035057
476,0.00061798095703125,0.0000633619522055717
477,0.000672817230224609,0.00007793479962196
478,0.000722885131835938,0.0000878053904206861
479,0.000685214996337891,0.0000784538424441295
480,0.000648021697998047,0.0000726687939363869
481,0.000596046447753906,0.0000747661809294273
482,0.000504016876220703,0.0000480033177372089
483,0.000662803649902344,0.0000474961884882358
484,0.000382423400878906,0.0000578743605835456
485,0.00371313095092773,0.0000704961447468067
486,-0.0010833740234375,0.0000661189356973252
487,0.000224590301513672,0.0000682660299994403
488,0.000206470489501953,0.0000669119947629174
489,0.000617504119873047,0.0000680892740619806
490,0.000462055206298828,0.0000821226557493223
491,0.000586509704589844,0.0000602005731940293
492,0.000516414642333984,0.0000741416615508149
493,0.000457763671875,0.0000790184060921669
494,0.000378608703613281,0.0000440861676457452
495,0.000531196594238281,0.0000491315848039026
496,0.000358104705810547,0.0000674349576174305
497,0.000296592712402344,0.0000690179578119761
498,0.000376224517822266,0.0000610183901408659
499,0.000468254089355469,0.00005842179595047
500,0.000368118286132812,0.0000674703516816753
501,0.000605106353759766,0.0000749590439343589
502,0.000330448150634766,0.0000589949900416091
503,0.000474452972412109,0.0000723379414045668
504,0.000270843505859375,0.0000570513292042339
505,0.000498771667480469,0.0000478431895956678
506,0.000485420227050781,0.0000580146432441711
507,0.000424385070800781,0.0000627543788008198
508,0.000385761260986328,0.0000758051113017902
509,0.000343799591064453,0.0000928008907882239
510,0.00045013427734375,0.0000680876043682847
511,0.000397205352783203,0.0000599005032143464
512,0.000354290008544922,0.0000547781926940305
513,0.000333309173583984,0.000061154249351049
514,0.000348091125488281,0.0000770958834812957
515,0.000303268432617187,0.000068440668376383
516,0.000368595123291016,0.0000533674306914051
517,0.000265121459960937,0.0000462593487463235
518,0.000281333923339844,0.0000421758355745475
519,0.000255584716796875,0.0000516593150233064
520,0.000140666961669922,0.0000574544255918101
521,0.000252246856689453,0.0000691446763933771
522,0.000213146209716797,0.000064849853515625
523,0.000362873077392578,0.0000493324855962745
524,0.000203609466552734,0.0000716637230908099
525,0.000309944152832031,0.0000712628307115609
526,0.000248908996582031,0.0000518800142931675
527,0.000140666961669922,0.0000527762022523371
528,0.000321388244628906,0.0000488554516708763
529,0.000182151794433594,0.000049830053408338
530,0.000348091125488281,0.0000470222852150734
531,0.000241279602050781,0.0000480802262705922
532,0.000172615051269531,0.0000751725877949579
533,0.000187873840332031,0.0000722278451109371
534,0.000223636627197266,0.000051476332557938
535,0.000168323516845703,0.000055799116701628
536,0.0000739097595214844,0.0000479748895743817
537,0.000266551971435547,0.0000323424271488178
538,0.000188350677490234,0.0000408955629588675
539,0.000124454498291016,0.0000360461768891009
540,0.000193595886230469,0.0000374188066803235
541,0.00012969970703125,0.0000443522643514074
542,0.000223159790039062,0.0000509412971746265
543,0.000165939331054687,0.0000490586419967636
544,0.000155448913574219,0.000057204562204242
545,0.0000977516174316406,0.0000551917125111459
546,0.0001678466796875,0.0000560947795651154
547,0.000198841094970703,0.0000800916108690821
548,0.000133037567138672,0.0000645440971853422
549,0.000101089477539062,0.0000437847135938972
550,0.0000824928283691406,0.0000373557102678289
551,0.000204086303710937,0.000062765247555709
552,0.000264644622802734,0.0000662889406433374
553,0.0000882148742675781,0.000042669599319793
554,0.000128269195556641,0.0000428165517257044
555,0.000185966491699219,0.0000625584183122376
556,0.0000238418579101562,0.0000558235605169288
557,0.000123977661132812,0.0000578596259095099
558,0.000118255615234375,0.0000498505826019797
559,0.000146389007568359,0.0000428901704493403
560,0.000142097473144531,0.0000408009358318853
561,0.000169754028320312,0.000043268866909125
562,0.0000882148742675781,0.0000499348917266094
563,0.0000929832458496094,0.0000345632939804461
564,0.000143051147460937,0.0000421664001136831
565,0.00008392333984375,0.0000377718542037245
566,0.000192165374755859,0.0000465203465471688
567,0.000235080718994141,0.0000687191666515281
568,0.000172615051269531,0.0000720686954797279
569,0.000196933746337891,0.0000581184104698927
570,0.000197410583496094,0.0000564996700555433
571,0.000247478485107422,0.0000495348666955473
572,-0.000125408172607422,0.0000434288456881093
573,0.000334262847900391,0.0000565057062376145
574,0.0000553131103515625,0.0000400294783162024
575,-0.000112533569335937,0.0000399754804152983
576,0.000241279602050781,0.0000482855016334603
577,0.000202178955078125,0.0000340896883997252
578,-0.000159263610839844,0.0000371940624941063
579,-0.0000662803649902344,0.0000370470558667515
580,0.000273704528808594,0.0000495096142998081
581,0.000338554382324219,0.0000481912307476907
582,-0.000281333923339844,0.0000516020650082503
583,-0.000294685363769531,0.000055767527582927
584,0.000329017639160156,0.0000571021207372692
585,0.000102519989013672,0.0000355731386115888
586,-0.000236988067626953,0.0000321803263626428
587,0.00025177001953125,0.0000435699760876173
588,-0.000154018402099609,0.0000529686460855076
589,-0.0000963211059570313,0.0000469218424544137
590,0.0000448226928710938,0.0000410232404716288
591,-0.0000967979431152344,0.0000439738493062293
592,0.000399112701416016,0.0000429663090611989
593,-0.0000147819519042969,0.0000407556320345013
594,0.00000858306884765625,0.0000548186481180946
595,0.0000295639038085937,0.0000459201858234539
596,-0.000215530395507812,0.0000427208573107325
597,0.000125408172607422,0.0000499223682985219
598,-0.0000138282775878906,0.0000578989100406674
599,0.0000424385070800781,0.0000398943465253382
600,0.00000333786010742187,0.0000421819001134493
601,-0.0000982284545898438,0.000048750624022369
602,-0.0000543594360351563,0.0000452543334357848
603,-0.0000767707824707031,0.0000402927398681641
604,-0.000240802764892578,0.0000389710464976637
605,0.0000586509704589844,0.0000437938003873112
606,-0.000216484069824219,0.0000378672957072821
607,-0.00006866455078125,0.0000381357951477844
608,-0.000229358673095703,0.000032673785358064
609,-0.000136852264404297,0.0000431939196397993
610,-0.0000247955322265625,0.0000548186481180946
611,-0.000247001647949219,0.000046642376940298
612,-0.000174045562744141,0.0000340421324290253
613,-0.0000748634338378906,0.0000269839910668811
614,-0.000227451324462891,0.0000408781846985794
615,-0.000238895416259766,0.0000423822136750965
616,-0.000316143035888672,0.0000444853547161329
617,-0.000199794769287109,0.0000415300254644111
618,-0.000253200531005859,0.0000475500139706341
619,-0.000146865844726562,0.0000513680007740102
620,-0.000186920166015625,0.0000493393986194903
621,-0.000306129455566406,0.0000534993441686849
622,-0.0000796318054199219,0.0000381447374165835
623,-0.000237941741943359,0.0000433200719098055
624,-0.000174999237060547,0.0000481416646346267
625,-0.000313758850097656,0.000054458686503108
626,-0.0003662109375,0.0000438443923328264
627,-0.000260353088378906,0.0000387090754367874
628,-0.000329494476318359,0.0000376791882803696
629,-0.000235080718994141,0.0000351301503965896
630,-0.000324726104736328,0.0000406627761942441
631,-0.000295639038085937,0.00003798495097988
632,-0.000275611877441406,0.0000363171839192871
633,-0.000286579132080078,0.0000425969338504059
634,-0.000322818756103516,0.0000461289122095404
635,-0.000244617462158203,0.0000506469754231467
636,-0.000249862670898437,0.000059125884855448
637,-0.000328540802001953,0.0000449088465803951
638,-0.000268459320068359,0.0000478110996115811
639,-0.000378131866455078,0.0000595712568230707
640,-0.000357627868652344,0.0000587507113154044
641,-0.000295162200927734,0.0000514365637213203
642,-0.000365257263183594,0.0000582737148527934
643,-0.00030517578125,0.0000450516494020364
644,-0.000279426574707031,0.0000390206076016969
645,-0.000313282012939453,0.0000374992332692106
646,-0.000360965728759766,0.0000455111030019063
647,-0.000325679779052734,0.0000496368930041241
648,-0.000227928161621094,0.0000388161262921041
649,-0.000318527221679687,0.0000331659011392046
650,-0.000365734100341797,0.0000418416115546955
651,-0.000285148620605469,0.0000416332363781945
652,-0.000317096710205078,0.0000546243969563192
653,-0.000250339508056641,0.0000551474078800713
654,-0.000438213348388672,0.0000545712993625562
655,0.00181198120117187,0.000049341702745329
656,0.000280857086181641,0.0000374127297323857
657,-0.00383090972900391,0.0000421859426550383
658,-0.000270843505859375,0.0000576322362126851
659,-0.000539302825927734,0.0000452078342958551
660,-0.000444412231445313,0.0000479796287712296
661,-0.000396251678466797,0.0000291070908269946
662,-0.000353336334228516,0.0000323230883218428
663,-0.000361442565917969,0.0000414244991348124
664,-0.000339508056640625,0.0000376882388881979
665,-0.000403881072998047,0.0000386774902774196
666,-0.000412940979003906,0.0000636215857256043
667,-0.000457286834716797,0.0000518252017957787
668,-0.000407695770263672,0.000027332483099385
669,-0.000421524047851563,0.0000284623256937097
670,-0.000474929809570313,0.0000276185053486459
671,-0.000425815582275391,0.0000360146238570656
672,-0.000365257263183594,0.0000483725386349146
673,-0.000490665435791016,0.0000428411053566288
674,-0.000410079956054688,0.0000477873153599792
675,-0.000486850738525391,0.0000589535437101751
676,-0.000446319580078125,0.0000492794535336122
677,-0.000404834747314453,0.0000499428595458075
678,-0.000414371490478516,0.0000431484935768104
679,-0.000399589538574219,0.0000480033177372089
680,-0.000441551208496094,0.000035448280879854
681,-0.000433444976806641,0.0000445606811847142
682,-0.000496387481689453,0.0000485028012899606
683,-0.000387668609619141,0.0000526046701061974
684,-0.000374794006347656,0.0000528719741709804
685,-0.000395774841308594,0.0000437678331153055
686,-0.000467300415039063,0.0000324477087656415
687,-0.000458240509033203,0.000035096154252209
688,-0.000482082366943359,0.0000452769373720902
689,-0.000428676605224609,0.0000441776181246452
690,-0.000462055206298828,0.0000503419009026305
691,-0.000452041625976563,0.0000471623046513147
692,-0.00048065185546875,0.0000439052846523937
693,-0.000398159027099609,0.0000439104630783895
694,-0.000432014465332031,0.0000508430065605301
695,-0.000473499298095703,0.0000490876005271153
696,-0.000490188598632813,0.0000505301166473003
697,-0.000358104705810547,0.0000395307782354771
698,-0.000418663024902344,0.0000372642976500387
699,-0.000450611114501953,0.0000431926036146436
700,-0.000458717346191406,0.0000502707142948437
701,-0.000494003295898438,0.0000423862371120001
702,-0.000441074371337891,0.0000423714826422177
703,-0.000439643859863281,0.0000445338846728375
704,-0.000418186187744141,0.0000389630233364353
705,-0.000454902648925781,0.0000427168653912105
706,-0.000426292419433594,0.000039758755452104
707,-0.000381946563720703,0.0000597161204266815
708,-0.000470161437988281,0.0000444751311354829
709,-0.0005035400390625,0.0000318643554413353
710,-0.000383853912353516,0.0000346273746831879
711,-0.000432014465332031,0.00003947465821551
712,-0.000490188598632813,0.0000483948607178801
713,-0.000427722930908203,0.0000385663700380513
714,-0.000474452972412109,0.0000368293043764962
715,-0.000575542449951172,0.0000503385133469106
716,-0.000487804412841797,0.0000367226533498576
717,-0.000441551208496094,0.0000386510270378537
718,-0.000488758087158203,0.0000447833619131819
719,-0.000546932220458984,0.0000475344706472799
720,-0.000527858734130859,0.0000377025645739415
721,-0.000514507293701172,0.0000500236042792849
722,-0.000487327575683594,0.0000569945086321457
723,-0.000499725341796875,0.0000450945281195684
724,-0.000533103942871094,0.0000522327170616592
725,-0.000472068786621094,0.0000466655266396679
726,-0.000523090362548828,0.0000456520219608361
727,-0.000547885894775391,0.0000491489361828809
728,-0.000573158264160156,0.0000371412989664348
729,-0.00055694580078125,0.0000447236651323895
730,-0.000553607940673828,0.0000504850989390029
731,-0.000598907470703125,0.000036654481965976
732,-0.000599384307861328,0.0000383898335605166
733,-0.000618457794189453,0.0000309439394827212
734,-0.000614166259765625,0.0000432675531635642
735,-0.000679492950439453,0.0000682926704024054
736,-0.000660896301269531,0.0000471309571538989
737,-0.000674724578857422,0.0000398437322793014
738,-0.000679492950439453,0.0000407395893928482
739,-0.000590801239013672,0.0000367706072974486
740,-0.000656604766845703,0.0000371673077469348
741,-0.000705242156982422,0.0000431445412240631
742,-0.000651359558105469,0.000051091716363086
743,-0.000685214996337891,0.0000565971760748207
744,-0.000658988952636719,0.0000376459841023935
745,-0.000658512115478516,0.0000413187032960318
746,-0.000653266906738281,0.0000439350522666733
747,-0.000666141510009766,0.0000523240520794401
748,-0.000680446624755859,0.0000385855261309508
749,-0.000607013702392578,0.0000361728995071855
750,-0.000543117523193359,0.0000472080827809904
751,-0.000622749328613281,0.0000578271964108897
752,-0.000648021697998047,0.0000579548439187565
753,-0.000561714172363281,0.0000469860053815608
754,-0.000592231750488281,0.0000470005206755066
755,-0.000607967376708984,0.0000422465343595383
756,-0.000606060028076172,0.000052394618716657
757,-0.000606060028076172,0.000054040609613446
758,-0.000643730163574219,0.0000678098653478127
759,-0.000638008117675781,0.0000579607285554086
760,-0.000520706176757813,0.0000425248125712376
761,-0.000622749328613281,0.0000453735048712434
762,-0.000622272491455078,0.0000380716474234008
763,-0.000607490539550781,0.000050669417366566
764,-0.000545024871826172,0.0000440577923557102
765,-0.000532150268554688,0.0000344768434140708
766,-0.000586986541748047,0.0000395782022525946
767,-0.000541210174560547,0.0000559608580338046
768,-0.000528335571289063,0.0000540637456880556
769,-0.000513076782226563,0.0000524488361391361
770,-0.00052642822265625,0.0000430871913681315
771,-0.000527381896972656,0.000040703295764804
772,-0.000529766082763672,0.000039281224586011
773,-0.000523090362548828,0.0000479867366889157
774,-0.000590324401855469,0.0000460943956482703
775,-0.000593185424804688,0.0000569885242236839
776,-0.000540256500244141,0.0000680458487104539
777,-0.000511646270751953,0.0000470259116590085
778,-0.000498294830322266,0.0000505705983210378
779,-0.000496864318847656,0.000046745852306351
780,-0.000506401062011719,0.0000524434169192029
781,-0.000442028045654297,0.0000476956352595239
782,-0.000533580780029297,0.0000356880041890166
783,-0.000519275665283203,0.0000376014142995297
784,-0.000473499298095703,0.0000499223682985219
785,-0.000535488128662109,0.0000641306092394044
786,-0.000544548034667969,0.000050816167033817
787,-0.000454425811767578,0.0000390249776184275
788,-0.000462055206298828,0.0000447554286519206
789,-0.000471591949462891,0.0000377695967642076
790,-0.000498294830322266,0.0000423446431623332
791,-0.000462532043457031,0.0000420982673425198
792,-0.000566005706787109,0.0000468066133119377
793,-0.000535488128662109,0.0000496368930041241
794,-0.000465869903564453,0.0000419189766960521
795,-0.000524520874023438,0.0000429378556443082
796,-0.000570774078369141,0.0000396327414315577
797,-0.000465869903564453,0.0000602854943438687
798,-0.000490188598632813,0.0000712037794996389
799,-0.000547885894775391,0.0000573028527554557
800,-0.000515937805175781,0.0000576055996085125
801,-0.000518321990966797,0.0000528224957589247
802,-0.000544548034667969,0.000062474767007637
803,-0.000533103942871094,0.0000675158310715784
804,-0.000535488128662109,0.0000570832036835439
805,-0.000571250915527344,0.0000432215469117152
806,-0.000576972961425781,0.0000517571536817321
807,-0.000574588775634766,0.0000546441652215334
808,-0.000490665435791016,0.0000408406224197513
809,-0.000576019287109375,0.0000579048003616593
810,-0.000603675842285156,0.0000640063972125924
811,-0.000661373138427734,0.0000517000120084407
812,-0.000607013702392578,0.0000554178331786054
813,-0.000552177429199219,0.0000624729472570574
814,-0.00067901611328125,0.0000632739731422362
815,-0.000629425048828125,0.0000536330529434259
816,-0.000652313232421875,0.0000501813058372717
817,-0.000678062438964844,0.0000465887229464502
818,-0.000640392303466797,0.0000522055031648992
819,-0.000698089599609375,0.000047210490926618
820,-0.000593185424804688,0.0000687390162090338
821,-0.000666618347167969,0.0000456657165095173
822,-0.000604152679443359,0.0000401846717418201
823,-0.000642299652099609,0.0000483337441994875
824,-0.000716686248779297,0.0000410391722312583
825,-0.000787734985351563,0.0000471610993636249
826,-0.000731945037841797,0.0000604267643841937
827,-0.000782966613769531,0.0000793457604371378
828,-0.000752449035644531,0.0000634516010126877
829,-0.000762462615966797,0.0000374020926976618
830,-0.000804901123046875,0.0000493889136361086
831,-0.000820159912109375,0.0000580567598542191
832,-0.000788688659667969,0.0000437288532947936
833,-0.000874996185302734,0.000044657524643811
834,-0.000720024108886719,0.0000527557340415512
835,-0.000796794891357422,0.0000463244292877227
836,-0.000802993774414063,0.0000570981387204765
837,-0.0008544921875,0.0000482053831333165
838,-0.000892162322998047,0.0000490968636494372
839,-0.000812530517578125,0.0000592775908780013
840,-0.000815868377685547,0.000064245733946473
841,-0.000744342803955078,0.0000701339769360289
842,-0.000781536102294922,0.0000474590731993436
843,-0.000861167907714844,0.0000463685828443269
844,-0.000828742980957031,0.0000410827797600784
845,-0.000744342803955078,0.0000384911271488391
846,-0.000767230987548828,0.0000436286456811694
847,-0.000873565673828125,0.0000543573446038785
848,-0.000807285308837891,0.0000700317797811145
849,-0.00072479248046875,0.000050872066735045
850,-0.000711441040039063,0.0000515568807509638
851,-0.000624656677246094,0.0000460215795769083
852,-0.000666618347167969,0.0000430944467141818
853,-0.0007171630859375,0.0000458235299024229
854,-0.000589370727539063,0.000032108707352967
855,-0.000650882720947266,0.0000396148091994545
856,-0.000631809234619141,0.0000552874127249692
857,-0.0006561279296875,0.0000427674021736675
858,-0.000706195831298828,0.0000430779555240257
859,-0.000644683837890625,0.0000443291889167638
860,-0.000731468200683594,0.0000539900964916922
861,-0.000640392303466797,0.0000489101056974757
862,-0.000578880310058594,0.000038245937007023
863,-0.000539302825927734,0.000044008737398674
864,-0.000634193420410156,0.0000551989215273001
865,-0.000584125518798828,0.0000550049798862373
866,-0.000529289245605469,0.0000517670371836551
867,-0.000452995300292969,0.0000522805791140754
868,-0.000535011291503906,0.0000589226810080841
869,-0.000563621520996094,0.0000762850040918533
870,-0.000620841979980469,0.0000526694648467701
871,-0.000557899475097656,0.0000462961980249526
872,-0.000573158264160156,0.0000584315249711624
873,-0.000498771667480469,0.0000582346835591626
874,-0.000500679016113281,0.0000421643779545084
875,-0.000545024871826172,0.000041721888928649
876,-0.000563621520996094,0.0000522642674294519
877,-0.000452041625976563,0.0000404166961515045
878,-0.000452518463134766,0.000053901584622473
879,-0.000424385070800781,0.0000496013795688537
880,-0.000476837158203125,0.0000427926481840156
881,-0.000462055206298828,0.000042627615118881
882,-0.000469207763671875,0.0000574079065870889
883,-0.000467300415039063,0.0000543406102558782
884,-0.000468254089355469,0.0000488659220674779
885,-0.000446796417236328,0.0000802674309253724
886,-0.000326633453369141,0.0000763401249362711
887,-0.000502109527587891,0.000065628801100745
888,-0.0003662109375,0.0000545837975609099
889,-0.000461578369140625,0.000057660832192821
890,-0.000481605529785156,0.0000563435112194688
891,-0.00043487548828125,0.0000511373116351712
892,-0.000514984130859375,0.0000573147553075654
893,-0.000431537628173828,0.0000678132183710475
894,-0.000377655029296875,0.0000569236528056791
895,-0.000429630279541016,0.0000638035914752111
896,-0.000507831573486328,0.0000486151794133754
897,-0.000354766845703125,0.0000449505969573963
898,-0.000420570373535156,0.0000559080129884627
899,-0.000445365905761719,0.0000817939058013594
900,-0.000470161437988281,0.0000649672035511205
901,-0.000531673431396484,0.0000519314852900644
902,-0.000479221343994141,0.0000654327617374971
903,-0.000554084777832031,0.000087738037109375
904,-0.000557422637939453,0.0000716161154836884
905,-0.00052642822265625,0.0000676655281690786
906,-0.000466346740722656,0.0000760671104530688
907,-0.000504970550537109,0.0000632200479827494
908,-0.000508308410644531,0.0000634910063862045
909,-0.000533580780029297,0.00007172398069616
910,-0.000596523284912109,0.0000603363896626372
911,-0.000606536865234375,0.0000614435717309746
912,-0.000585079193115234,0.0000676504053152779
913,-0.000688552856445313,0.0000753010273382994
914,-0.000643253326416016,0.000057981320080401
915,-0.000665187835693359,0.0000463881931572545
916,-0.000590324401855469,0.0000411062947619507
917,-0.000618457794189453,0.0000500951420385944
918,-0.000616550445556641,0.0000516659167121183
919,-0.000719070434570313,0.0000775018089091078
920,-0.000673294067382813,0.0000767456037091473
921,-0.000726222991943359,0.0000660070781722931
922,-0.000781536102294922,0.0000752496778281359
923,-0.000857830047607422,0.0000652326477764017
924,-0.000906944274902344,0.0000596627905473882
925,-0.000979900360107422,0.000054284093745261
926,-0.000965118408203125,0.000062523880253032
927,-0.000959873199462891,0.0000574999183879424
928,-0.00102663040161133,0.0000438392061023454
929,-0.00124549865722656,0.0000567686602703873
930,-0.00129985809326172,0.0000671104892187469
931,-0.00114631652832031,0.0000821752443682923
932,-0.00130033493041992,0.0000851992053280146
933,-0.00130701065063477,0.0000858730635413393
934,-0.00155496597290039,0.0000931335115348306
935,-0.00151538848876953,0.0000729950320935384
936,-0.00154972076416016,0.0000636197987780924
937,-0.00179529190063477,0.0000619704879619016
938,-0.00159263610839844,0.0000854310693369357
939,-0.00185728073120117,0.0000980917896533991
940,-0.00205278396606445,0.0000919269820103062
941,-0.00196504592895508,0.0000632164513365805
942,-0.0019221305847168,0.0000518460373711424
943,-0.00206470489501953,0.0000691824823787065
944,-0.00222206115722656,0.000083529567248077
945,-0.00232219696044922,0.0000767648587992074
946,-0.0024409294128418,0.00007831460605408
947,-0.00243663787841797,0.0000998128496899104
948,-0.0025324821472168,0.0000904508683750376
949,-0.00274467468261719,0.000082106041819201
950,-0.00296163558959961,0.0000779216698296184
951,-0.00288009643554687,0.000106029543093494
952,-0.0031580924987793,0.00010916759512182
953,-0.00320005416870117,0.000123216050320952
954,-0.00353336334228516,0.000110634441727972
955,-0.00357580184936523,0.000123455709516858
956,-0.00393772125244141,0.000121601889824028
957,-0.00397491455078125,0.0000924252616247432
958,-0.00402307510375977,0.000132858846796173
959,-0.00412082672119141,0.000144600425980561
960,-0.00432777404785156,0.000113957097625662
961,-0.00429105758666992,0.000167922523009178
962,-0.00419950485229492,0.000136495417380286
963,-0.00411176681518555,0.0000904332701959969
964,-0.00424909591674805,0.000115260527106192
965,-0.0041499137878418,0.000133101642724028
966,-0.00419044494628906,0.000161233020999966
967,-0.00442075729370117,0.0000979920663182412
968,-0.00422048568725586,0.000107946496557854
969,-0.00403404235839844,0.000094637461270413
970,-0.00402450561523438,0.000105429547555312
971,-0.00407695770263672,0.000172372510604852
972,-0.00368022918701172,0.000189644558284462
973,-0.00377368927001953,0.000163058787287376
974,-0.003631591796875,0.000147696413030323
975,-0.00345706939697266,0.000183016039944299
976,-0.0036921501159668,0.000135142750846289
977,-0.00349235534667969,0.000143416256681712
978,-0.00308561325073242,0.000120868579021094
979,-0.00319051742553711,0.000118578193987805
980,-0.00295877456665039,0.0000849814254965633
981,-0.00276613235473633,0.0000968672124002301
982,-0.00292587280273437,0.000152891572118831
983,-0.00282669067382812,0.000239077610887388
984,-0.00254249572753906,0.000160430017657146
985,-0.00259304046630859,0.000114428996418849
986,-0.00218868255615234,0.000133895330618166
987,-0.00205039978027344,0.000194974509987087
988,-0.00210905075073242,0.000191605488261078
989,-0.0020289421081543,0.000207436769475136
990,-0.00183725357055664,0.000152462669489657
991,-0.00156402587890625,0.000117793256047398
992,-0.00157308578491211,0.000141027763714704
993,-0.00174999237060547,0.000157734387695582
994,-0.00160312652587891,0.000172865143743472
995,-0.00112199783325195,0.000181739400212463
996,-0.000937938690185547,0.000180282286047624
997,-0.00113201141357422,0.000175216731943747
998,-0.00123310089111328,0.000191809487972098
999,-0.00169277191162109,0.000194058077960207
1000,-0.000826835632324219,0.000149188318382463
1001,-0.000751018524169922,0.00014965699624762
1002,-0.000811100006103516,0.000160775461184499
1003,-0.000776767730712891,0.000289898169057043
1004,-0.000883579254150391,0.000196118665450225
1005,-0.000462055206298828,0.000174243370417884
1006,-0.000320911407470703,0.000109367360626316
1007,-0.000186920166015625,0.000166481054603304
1008,-0.000765323638916016,0.000255819469080781
1009,-0.000195980072021484,0.000336002077851428
1010,-0.000495433807373047,0.000258387668180482
1011,0.0000715255737304688,0.00021386558524494
1012,-0.000422000885009766,0.000191249154054338
1013,-0.0000853538513183594,0.000224265594793412
1014,-0.000601291656494141,0.000359887929069702
1015,-0.000557899475097656,0.000285229942437662
1016,-0.000422000885009766,0.000234219771628143
1017,-0.0000963211059570313,0.000222232718778477
1018,-0.000376701354980469,0.000234413845349879
1019,-0.000454902648925781,0.0003318238487141
1020,-0.0000619888305664063,0.000320729619382628
1021,0.00000286102294921875,0.000211057412813278
1022,0.000000476837158203125,0.000300248421877173
1023,0.00000476837158203125,0.000260930591105607
1024,-0.000452041625976563,0.000374258547037533
1025,-0.000262260437011719,0.000397159269208063
1026,-0.000335693359375,0.000267620792867846
1027,-0.000219345092773437,0.000356709891588164
1028,-0.0002899169921875,0.000334749194496475
1029,-0.000318050384521484,0.000269098435809576
1030,-0.000250816345214844,0.000274485957919288
1031,-0.000655651092529297,0.000232352330518205
1032,-0.000683307647705078,0.000224220980562935
1033,0.0000262260437011719,0.000348778920451814
1034,-0.000513076782226563,0.000338483185064989
1035,-0.000641345977783203,0.000496995180143932
1036,-0.000210762023925781,0.000282422883891313
1037,-0.000555992126464844,0.000181142898979131
1038,-0.000950336456298828,0.000363438763105817
1039,-0.000350475311279297,0.0005411494636934
1040,-0.000984668731689453,0.000348622426110714
1041,-0.000990390777587891,0.000270823357060974
1042,-0.000411510467529297,0.000373733271624937
1043,-0.00104570388793945,0.000398904992475892
1044,-0.000809669494628906,0.000456330918213888
1045,-0.00107860565185547,0.000658419400206492
1046,-0.0014653205871582,0.00058235074001592
1047,-0.00151920318603516,0.000406332413401946
1048,-0.00148439407348633,0.000391847589672455
1049,-0.000766754150390625,0.00052172174034307
1050,-0.00140762329101562,0.000440329102493533
1051,-0.00150489807128906,0.000455165483210512
1052,-0.000474929809570313,0.000508171514001521
1053,-0.00170564651489258,0.000545994995735605
1054,-0.000738143920898438,0.000733037530910031
1055,-0.00252914428710937,0.00050271573654606
1056,-0.00264692306518555,0.000600787570880433
1057,-0.00160741806030273,0.000712092717311216
1058,-0.00171613693237305,0.000658695608341961
1059,-0.00055694580078125,0.000586880977320117
1060,-0.00271701812744141,0.000749876728705827
1061,-0.00285196304321289,0.000682468424701347
1062,-0.00291252136230469,0.000808571856658433
1063,-0.00163698196411133,0.000865776618657016
1064,-0.00122594833374023,0.000719128613938912
1065,-0.0018610954284668,0.000718156653888118
1066,-0.00345563888549805,0.000774618404458917
1067,-0.00254726409912109,0.00107769079898012
1068,-0.00224924087524414,0.00114956014445459
1069,-0.00243234634399414,0.000791069252645233
1070,-0.00182294845581055,0.000866431880069628
1071,-0.00270557403564453,0.000915940509392289
1072,-0.00223731994628906,0.00135251327517608
1073,0.000667095184326172,0.000767256918279889
1074,-0.00251340866088867,0.000720624483930084
1075,-0.00336170196533203,0.000787751149157192
1076,-0.0028538703918457,0.00140889944725345
1077,-0.0039525032043457,0.00100849514581926
1078,-0.00309562683105469,0.000777955110753684
1079,-0.00153875350952148,0.00117348917416856
1080,-0.00264644622802734,0.00128832893740206
1081,-0.00188064575195312,0.00140052909911291
1082,-0.00362539291381836,0.00124613963015767
1083,-0.00498580932617188,0.00147557302907351
1084,-0.00429582595825195,0.00152900375831078
1085,-0.00253486633300781,0.00158673065299411
1086,-0.00438451766967773,0.00145567568087602
1087,-0.00360822677612305,0.00135526482287576
1088,-0.00469064712524414,0.00150459707172604
1089,-0.00330924987792969,0.0014301808293007
1090,-0.00553131103515625,0.00180334744717579
1091,-0.0043025016784668,0.00138075179445793
1092,-0.0013580322265625,0.00144926368767093
1093,-0.00352048873901367,0.00182309007955147
1094,-0.00120782852172852,0.00162930002873
1095,0.00000286102294921875,0.00146762266418925
1096,-0.00549602508544922,0.00202114166819329
1097,-0.00900506973266602,0.00160456886967325
1098,-0.00548267364501953,0.00171038025660642
1099,-0.00531721115112305,0.00206974660588864
1100,-0.00175380706787109,0.00282506084946278
