Wavelength (nm),Absorbance (AU),Std.Dev.
190,0.305503368377686,0.000108484383396605
191,0.297763824462891,0.00008243906330738
192,0.291309833526611,0.0000641412447920201
193,0.285679817199707,0.0000467823183796916
194,0.281027793884277,0.000044214916730227
195,0.276863574981689,0.0000602920943088617
196,0.273411273956299,0.0000440487600210814
197,0.27032470703125,0.0000408566253900942
198,0.267289161682129,0.0000387926883693439
199,0.264188766479492,0.0000368354775753958
200,0.261250019073486,0.0000341804445238237
201,0.258319854736328,0.0000458904672231087
202,0.255500316619873,0.0000476932516099929
203,0.252784729003906,0.0000540364019901583
204,0.250099182128906,0.0000493359422289653
205,0.247192859649658,0.0000450011515445455
206,0.244110584259033,0.000046559431071221
207,0.240943908691406,0.0000481699943730346
208,0.237579822540283,0.0000602062383305584
209,0.234160900115967,0.0000435647571888638
210,0.230597496032715,0.0000394256678922348
211,0.226930141448975,0.0000309301590591998
212,0.223454475402832,0.0000430350488544394
213,0.219846725463867,0.0000409219637803393
214,0.21623420715332,0.0000408058117023746
215,0.21270751953125,0.0000369564179131127
216,0.209278106689453,0.0000349256771635723
217,0.205869674682617,0.0000345715160929825
218,0.202608108520508,0.0000315308007490379
219,0.199446678161621,0.000024884778581889
220,0.19633150100708,0.0000246391500144268
221,0.193288803100586,0.0000356170546047347
222,0.190486431121826,0.0000300047674198198
223,0.187591552734375,0.0000251381838539621
224,0.184879779815674,0.0000264096336480102
225,0.182078838348389,0.0000305910641316297
226,0.179424285888672,0.0000287934239729297
227,0.176746845245361,0.0000313635993372298
228,0.17413854598999,0.0000450099927593773
229,0.171551704406738,0.0000553665232096585
230,0.169034481048584,0.0000443407281351765
231,0.166600704193115,0.0000476479396123345
232,0.164115428924561,0.0000394098050430836
233,0.161693572998047,0.0000280524560548453
234,0.159337520599365,0.0000336432185790303
235,0.156943798065186,0.0000385449923954453
236,0.154716968536377,0.0000478598203759178
237,0.152588367462158,0.0000468769974115356
238,0.150515079498291,0.0000316468670946837
239,0.148464202880859,0.0000335408423071671
240,0.146573066711426,0.0000275587539522246
241,0.14481782913208,0.0000307938616194202
242,0.143017292022705,0.0000389447827320179
243,0.141325950622559,0.0000318009632708293
244,0.139768600463867,0.0000388175906923948
245,0.138248443603516,0.0000338923561933839
246,0.136869430541992,0.0000368022844562192
247,0.135444164276123,0.0000388680787158781
248,0.134200096130371,0.0000393513458042559
249,0.133020401000977,0.0000481298556554624
250,0.131855010986328,0.0000350345535644659
251,0.130775928497314,0.0000379759710859059
252,0.129726409912109,0.0000347919617820109
253,0.128740310668945,0.0000413551440967763
254,0.127792358398437,0.0000455136009356057
255,0.126730918884277,0.0000361375248863035
256,0.125778198242187,0.0000327684632273267
257,0.124792575836182,0.0000274181365966797
258,0.123815536499023,0.0000401549551040177
259,0.122758865356445,0.0000476706009949254
260,0.121730327606201,0.0000336719294457219
261,0.120701789855957,0.000044114524684265
262,0.119520664215088,0.0000489321825515167
263,0.118324756622314,0.000049840319062154
264,0.117187976837158,0.0000492967528660587
265,0.116013050079346,0.0000485613640135806
266,0.114708423614502,0.0000504242612801015
267,0.113444328308105,0.000041417637479478
268,0.1120924949646,0.0000394573744587583
269,0.110798358917236,0.0000449101123135891
270,0.109466075897217,0.0000560471320683402
271,0.108067989349365,0.0000605076104468432
272,0.106706142425537,0.0000578409566005933
273,0.10524320602417,0.000057204562204242
274,0.103778839111328,0.0000547636629444765
275,0.102462768554687,0.0000382184313001897
276,0.101099967956543,0.0000507041827489274
277,0.0996756553649902,0.0000617683598125888
278,0.0982308387756348,0.0000516989125111466
279,0.0967841148376465,0.0000389907327121755
280,0.0955057144165039,0.000040275101497228
281,0.0942511558532715,0.0000499906397918307
282,0.0928349494934082,0.0000518657686163897
283,0.0915307998657227,0.0000524965011520739
284,0.0902509689331055,0.0000423842254412902
285,0.0888857841491699,0.0000366831603694653
286,0.0876669883728027,0.0000474423019383815
287,0.0864276885986328,0.0000405872181676229
288,0.0851359367370606,0.000038267481713488
289,0.0838212966918945,0.000046631407282017
290,0.0825920104980469,0.000040387853961677
291,0.0813565254211426,0.0000385272915828803
292,0.0801787376403809,0.0000440603726826535
293,0.0790624618530273,0.0000482053831333165
294,0.0778050422668457,0.0000387391675355085
295,0.0767035484313965,0.0000422189422560343
296,0.0757465362548828,0.0000397258585537508
297,0.074549674987793,0.0000421926793636383
298,0.0735783576965332,0.0000501507119681796
299,0.0724849700927734,0.0000400131445356838
300,0.0714788436889648,0.0000362827333231312
301,0.0703930854797363,0.000036730392092141
302,0.0694327354431152,0.0000386385242078455
303,0.068385124206543,0.000062080462295015
304,0.0674896240234375,0.0000678484151106249
305,0.0665454864501953,0.0000476288479799494
306,0.0655999183654785,0.0000290582271563128
307,0.0646882057189941,0.0000282568767387399
308,0.0637736320495606,0.0000401216746749088
309,0.0630230903625488,0.0000586693820122333
310,0.0620312690734863,0.0000451889696624704
311,0.0611763000488281,0.0000384719240524531
312,0.0603017807006836,0.0000435817163247966
313,0.0594358444213867,0.0000529117384493509
314,0.0586180686950684,0.0000529192580597703
315,0.0577459335327148,0.0000474818247212275
316,0.0569610595703125,0.0000574217672528461
317,0.0562663078308106,0.0000599972194587343
318,0.0554232597351074,0.0000445747110238606
319,0.0546393394470215,0.0000439660926371748
320,0.0539250373840332,0.00005548856301991
321,0.0530972480773926,0.0000464592111532536
322,0.0525112152099609,0.0000470404146390477
323,0.0516400337219238,0.0000469533295634887
324,0.0508928298950195,0.0000554065490623338
325,0.0502409934997559,0.0000506099244602085
326,0.0495376586914063,0.0000436651114212391
327,0.0487480163574219,0.0000495394566572598
328,0.0481348037719727,0.000059964050092195
329,0.0474185943603516,0.0000576637895882835
330,0.0466403961181641,0.0000375424102936097
331,0.0459742546081543,0.000044500685683176
332,0.0452322959899902,0.0000434236098274973
333,0.0446071624755859,0.000052799892373086
334,0.0439200401306152,0.0000299734922071999
335,0.0432562828063965,0.0000330405487124808
336,0.0425825119018555,0.0000498346161822152
337,0.0419063568115234,0.000044303535448807
338,0.0412478446960449,0.0000416502996002927
339,0.0406155586242676,0.0000473991485899755
340,0.0399508476257324,0.0000412133255025581
341,0.0393919944763184,0.000046572858800923
342,0.038724422454834,0.0000516648164892301
343,0.0381765365600586,0.0000629768133582218
344,0.0376543998718262,0.0000460166387234316
345,0.0370321273803711,0.000055269931514159
346,0.0364813804626465,0.0000488670853063956
347,0.0358781814575195,0.0000322200459132965
348,0.0353164672851562,0.0000445070720275041
349,0.0347895622253418,0.0000310750060274718
350,0.0342521667480469,0.0000366319886035019
351,0.0336642265319824,0.0000535375807506968
352,0.0332064628601074,0.000044775745479229
353,0.0326876640319824,0.0000605780276570313
354,0.0321817398071289,0.0000686165191291646
355,0.0316982269287109,0.0000756279366753748
356,0.0311727523803711,0.0000706990488427431
357,0.0306410789489746,0.0000442778671178871
358,0.0301737785339355,0.0000500860635423186
359,0.0296869277954102,0.0000446014830073265
360,0.0292191505432129,0.0000424177408309443
361,0.0286784172058105,0.0000498391785383707
362,0.0282154083251953,0.000057536484317481
363,0.0277962684631348,0.0000671782160391095
364,0.0272769927978516,0.000056931640969177
365,0.0268435478210449,0.0000635518575408944
366,0.0264153480529785,0.0000565579928301306
367,0.0260496139526367,0.0000597636961766925
368,0.0254426002502441,0.0000637732932555085
369,0.0250835418701172,0.0000728000892918841
370,0.024726390838623,0.0000685468963778404
371,0.0243005752563477,0.0000673269752301132
372,0.0238075256347656,0.0000664533785782066
373,0.0234971046447754,0.0000725967934767003
374,0.0232419967651367,0.000058737164251757
375,0.0227184295654297,0.0000871842988735199
376,0.022468090057373,0.0000649479516753442
377,0.022066593170166,0.0000801682250650368
378,0.021580696105957,0.0000869701827484257
379,0.0212407112121582,0.0000895565688689812
380,0.0209345817565918,0.000126745433517012
381,0.0206484794616699,0.0000920456294147947
382,0.0203733444213867,0.0000853272082126665
383,0.0200395584106445,0.0000777595534391876
384,0.0197224617004395,0.0000869832536989103
385,0.0193476676940918,0.0000752678051848436
386,0.0191278457641602,0.0000933797646883304
387,0.0187616348266602,0.0000675191986966433
388,0.0184817314147949,0.0000940252266606348
389,0.0181078910827637,0.000108045449902374
390,0.017974853515625,0.000116736514698764
391,0.017545223236084,0.0000918601755008623
392,0.0173583030700684,0.000066808272309278
393,0.0169219970703125,0.0000800007138491657
394,0.0165843963623047,0.00007861018859662
395,0.0163002014160156,0.0000862231817202738
396,0.0160822868347168,0.0000720923537782017
397,0.015963077545166,0.0000611523903049982
398,0.0157155990600586,0.0000500713074751878
399,0.015286922454834,0.0000586112205591564
400,0.0153017044067383,0.0000666924571373743
401,0.0149641036987305,0.000100541428589687
402,0.0146136283874512,0.0000855759974448187
403,0.014503002166748,0.0000891978679740137
404,0.0142312049865723,0.0000752436344054198
405,0.0139651298522949,0.0000608551455407153
406,0.0138344764709473,0.0000804668885666453
407,0.0135536193847656,0.0000675579143192861
408,0.0133123397827148,0.0000616725777214994
409,0.0131206512451172,0.0000847094199207677
410,0.0129132270812988,0.0000843961359123431
411,0.0127339363098145,0.0000604634405290834
412,0.0126276016235352,0.0000516395048930393
413,0.0123486518859863,0.0000550297764523052
414,0.0121574401855469,0.0000616209410825733
415,0.0120120048522949,0.0000641270636632171
416,0.0118327140808105,0.0000541236431476382
417,0.0116658210754395,0.0000569506083668997
418,0.0114350318908691,0.0000841762784152248
419,0.0113339424133301,0.0000885968059449733
420,0.011162281036377,0.0000891621735277756
421,0.0110640525817871,0.0000714158169726227
422,0.0107731819152832,0.0000580655710926016
423,0.0105762481689453,0.0000658052554802149
424,0.0105009078979492,0.0000608383298234152
425,0.0104174613952637,0.0000531250952605181
426,0.0102715492248535,0.0000583039461332939
427,0.0101323127746582,0.0000515425457644335
428,0.00992345809936523,0.0000477599488279301
429,0.00989580154418945,0.0000624875037778484
430,0.00979852676391602,0.0000450339815929694
431,0.00961399078369141,0.0000409740207455159
432,0.00945949554443359,0.0000510015180859411
433,0.00940656661987305,0.0000541404445583561
434,0.00916004180908203,0.0000522131244857493
435,0.00906038284301758,0.0000660415160512846
436,0.00903415679931641,0.0000590450723225154
437,0.00889158248901367,0.0000602515402469235
438,0.00876712799072266,0.0000489042943426202
439,0.00864982604980469,0.0000439971111084121
440,0.00850582122802734,0.0000707408455054793
441,0.00848770141601563,0.0000663968989725336
442,0.00824069976806641,0.0000638160630316829
443,0.00819492340087891,0.000038746503526548
444,0.00808525085449219,0.0000374673867808594
445,0.00799274444580078,0.0000364242418755869
446,0.00792360305786133,0.0000480317290744853
447,0.00773525238037109,0.0000574296861313189
448,0.00767374038696289,0.0000525917015785684
449,0.00763797760009766,0.0000451398847194421
450,0.00761318206787109,0.0000420827365389714
451,0.00751304626464844,0.0000751438477585306
452,0.00743436813354492,0.000086951880116754
453,0.00731086730957031,0.0000693712032529061
454,0.0072636604309082,0.0000667606080412561
455,0.00726032257080078,0.0000596780325187172
456,0.00717401504516602,0.0000592718369824437
457,0.0070652961730957,0.0000481841529960924
458,0.00692987442016602,0.0000524900039263036
459,0.00699043273925781,0.0000626945669686549
460,0.00677061080932617,0.0000632416235642828
461,0.00676774978637695,0.0000745819656220137
462,0.00667142868041992,0.0000669001003543685
463,0.00662040710449219,0.0000532672140801084
464,0.00665044784545898,0.0000503712501757801
465,0.00650167465209961,0.0000516108768363556
466,0.00637102127075195,0.0000465887229464502
467,0.00639486312866211,0.0000589554720926138
468,0.00639247894287109,0.0000597170723131305
469,0.00629377365112305,0.0000638570238532843
470,0.00617790222167969,0.0000764279380994714
471,0.00626277923583984,0.0000650371623325499
472,0.0060882568359375,0.000056856707877032
473,0.00594663619995117,0.0000638035914752111
474,0.00589656829833984,0.000077017689169197
475,0.0058894157409668,0.0000754126671732682
476,0.0058741569519043,0.0000668354937720799
477,0.00586748123168945,0.0000755015590371303
478,0.00579595565795898,0.0000818786469138547
479,0.005706787109375,0.0000845159394081917
480,0.00573348999023438,0.0000715954756894053
481,0.00561094284057617,0.0000579901427813849
482,0.00559425354003906,0.000085184526048428
483,0.00561428070068359,0.0000772799906780011
484,0.00536012649536133,0.0000518383620808551
485,0.00588464736938477,0.0000706121613377939
486,0.00529098510742188,0.0000524661738814018
487,0.0051569938659668,0.0000604079474671043
488,0.00523281097412109,0.0000658346185627204
489,0.00518321990966797,0.0000578635555227927
490,0.00517463684082031,0.0000662288877528182
491,0.00513792037963867,0.0000671087951724966
492,0.00507450103759766,0.0000619888305664063
493,0.00503206253051758,0.0000674282137844602
494,0.00497293472290039,0.0000571856790382198
495,0.00491619110107422,0.0000684954627628404
496,0.0049443244934082,0.000082851742658988
497,0.00474882125854492,0.0000740572780040301
498,0.00486278533935547,0.0000605921012788125
499,0.00471782684326172,0.0000613935942735271
500,0.00479984283447266,0.0000663729234079125
501,0.00464487075805664,0.0000651262507881273
502,0.00470066070556641,0.0000576992665104142
503,0.00461101531982422,0.000058629644595126
504,0.00450897216796875,0.0000670952412627047
505,0.00455856323242188,0.0000625983859423601
506,0.00450801849365234,0.0000588609070569444
507,0.00443649291992188,0.000057170766869935
508,0.00438737869262695,0.0000648375808098198
509,0.0043940544128418,0.0000609242280605429
510,0.00441741943359375,0.0000488403238019052
511,0.00427341461181641,0.0000635232289646161
512,0.00421524047851563,0.0000919665481527786
513,0.00415420532226563,0.0000699017902866233
514,0.00426435470581055,0.0000524553384640331
515,0.00417089462280273,0.0000679756414633754
516,0.00412893295288086,0.0000762402822596479
517,0.00418806076049805,0.0000498175036253612
518,0.00409841537475586,0.0000563505728844211
519,0.00405979156494141,0.0000620603149229273
520,0.00402641296386719,0.0000654970162265997
521,0.00402545928955078,0.0000652291621023082
522,0.003936767578125,0.0000467105747080172
523,0.00397062301635742,0.0000510705730436747
524,0.00392866134643555,0.0000670274306018276
525,0.00383472442626953,0.0000512172831531366
526,0.00387048721313477,0.0000652727196496
527,0.0037693977355957,0.0000804202513320326
528,0.00370073318481445,0.0000475021721092692
529,0.00380134582519531,0.0000257481027295916
530,0.00376653671264648,0.0000286226444328856
531,0.00362825393676758,0.0000421697701634894
532,0.00365066528320312,0.0000544200525785128
533,0.00371885299682617,0.0000547947934043726
534,0.00364494323730469,0.0000647445834064243
535,0.00345373153686523,0.0000564664595201474
536,0.0036158561706543,0.0000553316052527226
537,0.0035862922668457,0.0000482100996719641
538,0.00349807739257812,0.0000472020618794161
539,0.00345945358276367,0.0000520954142904193
540,0.00344038009643555,0.0000632470163096472
541,0.00347089767456055,0.000055162867025353
542,0.00343799591064453,0.0000468830600591485
543,0.00335836410522461,0.0000457328848156835
544,0.00337505340576172,0.0000458817956720436
545,0.00325393676757812,0.0000418606267657584
546,0.0033268928527832,0.0000508094549368762
547,0.00336742401123047,0.0000393961001696298
548,0.00335693359375,0.0000538551632060833
549,0.00325536727905273,0.0000470537051105274
550,0.00321817398071289,0.0000406725604761642
551,0.00319480895996094,0.0000477623291488381
552,0.00318002700805664,0.0000503023652244108
553,0.00315284729003906,0.0000596246685726022
554,0.00313186645507812,0.0000677494825528028
555,0.00304222106933594,0.0000603166021417771
556,0.00303745269775391,0.0000656980553817149
557,0.00303363800048828,0.0000470718224333231
558,0.003082275390625,0.0000467069237805284
559,0.00305080413818359,0.0000458694048981884
560,0.00300836563110352,0.0000517911889147547
561,0.00291872024536133,0.0000534483195083697
562,0.00293827056884766,0.000045075616066347
563,0.00295448303222656,0.0000655941465407721
564,0.00289440155029297,0.0000615101451743969
565,0.00284624099731445,0.0000502299909372461
566,0.00286436080932617,0.000050481720992531
567,0.00285530090332031,0.0000539195094660076
568,0.00277376174926758,0.0000580675289640037
569,0.00283241271972656,0.0000507501261927812
570,0.00286865234375,0.0000319756559752783
571,0.00281620025634766,0.0000437431499287891
572,0.00271844863891602,0.0000511462035343229
573,0.00282001495361328,0.0000429312358678718
574,0.00275421142578125,0.0000580342361671356
575,0.00271224975585937,0.0000510950539821536
576,0.00276851654052734,0.0000450957886411167
577,0.00272893905639648,0.0000396291556342853
578,0.00266027450561523,0.0000444955759477495
579,0.00262689590454102,0.0000495956492138664
580,0.00267934799194336,0.0000525949440102598
581,0.00268220901489258,0.0000344595272747941
582,0.00257778167724609,0.0000361461752128171
583,0.00252294540405273,0.0000466033619799447
584,0.00260829925537109,0.0000406376057949308
585,0.00263786315917969,0.0000468442455559126
586,0.0025172233581543,0.0000450529111232752
587,0.00256967544555664,0.0000379722288366545
588,0.00244140625,0.0000429954046936686
589,0.00242328643798828,0.0000577317678707713
590,0.00246047973632812,0.000058739099737852
591,0.00243902206420898,0.0000453847785699153
592,0.00253105163574219,0.0000450529111232752
593,0.00241708755493164,0.0000332702854733246
594,0.00242376327514648,0.0000346487085811328
595,0.00241231918334961,0.0000344925029065261
596,0.00233125686645508,0.000043891040830593
597,0.00230693817138672,0.0000546743240566554
598,0.00233840942382812,0.0000484523807356395
599,0.00240325927734375,0.000039424226078784
600,0.002349853515625,0.0000497775514478427
601,0.00227165222167969,0.0000430251412388277
602,0.00226020812988281,0.0000396642824693777
603,0.00225210189819336,0.0000582171109396268
604,0.00222396850585937,0.0000485379474030892
605,0.00228977203369141,0.0000329949262466549
606,0.00226593017578125,0.0000419819847696391
607,0.00224161148071289,0.0000425675658574222
608,0.0022273063659668,0.0000371014855650461
609,0.00218820571899414,0.0000371994111344187
610,0.00216436386108398,0.0000319685443475062
611,0.00215482711791992,0.0000415005873219117
612,0.00215244293212891,0.0000464995695316356
613,0.00214242935180664,0.0000335535505417409
614,0.00220823287963867,0.0000419928153366738
615,0.002166748046875,0.0000487447936541101
616,0.00210762023925781,0.0000410426348389231
617,0.00217437744140625,0.0000261647418303744
618,0.00209140777587891,0.000036707945244803
619,0.00199460983276367,0.0000310264934919785
620,0.00208044052124023,0.000037718391896372
621,0.00198793411254883,0.0000425421862756167
622,0.00203752517700195,0.0000353149346566878
623,0.0020294189453125,0.0000403589911600433
624,0.00202322006225586,0.0000360311926441798
625,0.00205850601196289,0.0000359585490367284
626,0.00201702117919922,0.000028825486556134
627,0.00198268890380859,0.0000435647571888638
628,0.001953125,0.0000376104836229369
629,0.00198841094970703,0.0000371183349080783
630,0.00195980072021484,0.0000383616901463877
631,0.00193214416503906,0.0000335060818733101
632,0.00194215774536133,0.0000507422851349755
633,0.00184106826782227,0.0000469630136575513
634,0.00189876556396484,0.000038698794726798
635,0.00182342529296875,0.0000392696461694635
636,0.0018763542175293,0.000060063503239655
637,0.00182008743286133,0.0000458929445081775
638,0.00193119049072266,0.0000459486481120841
639,0.00192165374755859,0.0000570264148708897
640,0.00189638137817383,0.0000655750787264675
641,0.00181007385253906,0.0000575236394773954
642,0.00175666809082031,0.0000421198658906438
643,0.00175571441650391,0.000038801479249474
644,0.00180864334106445,0.0000564674661869839
645,0.0017857551574707,0.0000524087206422199
646,0.00176477432250977,0.0000577051772102481
647,0.0017547607421875,0.0000408614946153284
648,0.00179004669189453,0.0000396764620641914
649,0.00168323516845703,0.0000399249690255957
650,0.00174951553344727,0.0000412346983130044
651,0.00179338455200195,0.0000356186505296646
652,0.00174617767333984,0.0000436481846877833
653,0.00179624557495117,0.0000504400410524421
654,0.00173759460449219,0.0000458247703710119
655,0.00211191177368164,0.0000344479783461704
656,0.00226831436157227,0.0000370317091155268
657,0.000986099243164063,0.0000338285635004767
658,0.00177669525146484,0.0000579832807966344
659,0.00165319442749023,0.0000580038643155222
660,0.00168085098266602,0.0000568287075267241
661,0.00166130065917969,0.0000483972098119143
662,0.0017085075378418,0.0000517472682921035
663,0.00161552429199219,0.0000491928656183223
664,0.00166177749633789,0.0000624875037778484
665,0.00161838531494141,0.0000538076453327628
666,0.0016484260559082,0.000057797699258811
667,0.00159549713134766,0.0000498505826019797
668,0.00167369842529297,0.0000420117621104863
669,0.00161027908325195,0.0000396807598521548
670,0.00164556503295898,0.0000399327989164577
671,0.00160503387451172,0.0000405045028998091
672,0.0016322135925293,0.0000391413314175246
673,0.00154209136962891,0.0000534472559766266
674,0.0015716552734375,0.000054426319402238
675,0.00157546997070312,0.0000403251743127185
676,0.0015864372253418,0.0000442213443446659
677,0.00158977508544922,0.0000390133231527
678,0.00159788131713867,0.0000319960931003014
679,0.00151443481445312,0.0000432254922233947
680,0.00155353546142578,0.0000523044937164386
681,0.00153589248657227,0.0000685767433551082
682,0.00149965286254883,0.0000357731168451027
683,0.00155878067016602,0.0000334032852997845
684,0.00153112411499023,0.0000310512168959129
685,0.0015721321105957,0.0000334619435287342
686,0.00153923034667969,0.0000383186945575333
687,0.00153255462646484,0.0000395731751267858
688,0.00151729583740234,0.0000429133573707954
689,0.00144433975219727,0.0000540090444486961
690,0.00152826309204102,0.0000444393300811589
691,0.00154733657836914,0.0000387926883693439
692,0.00154495239257812,0.0000411622616723633
693,0.00146675109863281,0.0000404946780120128
694,0.00144672393798828,0.0000432806888246833
695,0.00147724151611328,0.0000481463874152958
696,0.00145816802978516,0.0000517450712823888
697,0.00145912170410156,0.000041549867318941
698,0.00138521194458008,0.0000409143231892199
699,0.00147533416748047,0.0000534249169193448
700,0.00145149230957031,0.0000593552138750688
701,0.00144767761230469,0.0000420975922093344
702,0.00147390365600586,0.0000513159645933485
703,0.00135374069213867,0.0000430244806499999
704,0.00141239166259766,0.0000509870269596119
705,0.00140237808227539,0.0000548570013260949
706,0.00140857696533203,0.0000516119782090862
707,0.00144720077514648,0.0000419758913476351
708,0.00140047073364258,0.0000524499199159319
709,0.00144004821777344,0.0000496723810489515
710,0.00139379501342773,0.0000490192309413772
711,0.001373291015625,0.0000456930932938172
712,0.00135421752929687,0.0000500190587450384
713,0.00135517120361328,0.000042598935476282
714,0.00138282775878906,0.0000360950295787345
715,0.00128173828125,0.0000326972632177997
716,0.00138521194458008,0.0000398365983456926
717,0.00131320953369141,0.0000325919156885863
718,0.00140142440795898,0.0000292230577328135
719,0.0012965202331543,0.0000341762866729533
720,0.00126361846923828,0.0000357047245443981
721,0.00138378143310547,0.0000412098772369623
722,0.00132465362548828,0.0000502141451567954
723,0.00136613845825195,0.0000479689649198887
724,0.00129461288452148,0.000045330890039996
725,0.00129985809326172,0.0000415334471500854
726,0.00129461288452148,0.0000536394117143231
727,0.00130987167358398,0.0000593887232854472
728,0.00123739242553711,0.0000570174430458551
729,0.00130319595336914,0.0000493094351858973
730,0.00128459930419922,0.0000651663880865991
731,0.00125455856323242,0.0000361626837266228
732,0.00127077102661133,0.0000368994635729699
733,0.00127601623535156,0.00003813281392552
734,0.00125646591186523,0.0000392153267723259
735,0.00122737884521484,0.0000545431679452088
736,0.0012507438659668,0.0000478003981628714
737,0.00123357772827148,0.0000469521189112894
738,0.00127506256103516,0.0000509792223392643
739,0.00124120712280273,0.000044639700845598
740,0.0012660026550293,0.0000593446784382578
741,0.00121212005615234,0.0000608784929981408
742,0.00117588043212891,0.0000588918021321588
743,0.00120687484741211,0.0000589303981989109
744,0.00127220153808594,0.0000494452772790623
745,0.00127696990966797,0.0000494728605329091
746,0.00122165679931641,0.0000470307464826124
747,0.00118780136108398,0.0000493359422289653
748,0.00125265121459961,0.0000503114046899089
749,0.00126218795776367,0.000038303115288413
750,0.00122261047363281,0.0000449581837695053
751,0.00124931335449219,0.0000656980553817149
752,0.00121593475341797,0.0000655247824368349
753,0.00128173828125,0.0000564150956927013
754,0.00122356414794922,0.0000516152821862707
755,0.00124311447143555,0.0000548238325519485
756,0.0012669563293457,0.0000474171339245678
757,0.00125837326049805,0.0000479179826522724
758,0.00124216079711914,0.000040536066767872
759,0.00116777420043945,0.0000394537727230789
760,0.00124073028564453,0.0000494590708288784
761,0.00125503540039062,0.0000491512492372711
762,0.0012364387512207,0.000038563422102252
763,0.00128984451293945,0.000039292076252847
764,0.00123977661132812,0.0000441158132074695
765,0.00120258331298828,0.0000561474488291357
766,0.0012211799621582,0.0000595206622701814
767,0.00124740600585937,0.0000641749124136782
768,0.00117731094360352,0.0000508072173741784
769,0.00124216079711914,0.0000520539344359002
770,0.00118923187255859,0.0000418334595326241
771,0.00121021270751953,0.000042078008634873
772,0.00115060806274414,0.0000471719458441688
773,0.00119686126708984,0.0000572562106023488
774,0.00124645233154297,0.000071258044598475
775,0.00122928619384766,0.0000442868527259876
776,0.00118350982666016,0.0000482701951425983
777,0.0011444091796875,0.0000512317091504758
778,0.00120258331298828,0.0000686711732002056
779,0.00120782852172852,0.0000573732402727236
780,0.00116682052612305,0.0000380440157059411
781,0.00120449066162109,0.0000505379906234293
782,0.00120830535888672,0.0000475739168595769
783,0.00122737884521484,0.0000421738138677863
784,0.00123262405395508,0.0000574880541727356
785,0.0011439323425293,0.0000587545813313045
786,0.00117015838623047,0.0000617849224084357
787,0.0012202262878418,0.0000365636481794055
788,0.0012364387512207,0.0000407674855816778
789,0.0011286735534668,0.0000374749717328129
790,0.00122642517089844,0.0000417586585080628
791,0.00118112564086914,0.0000645969170451206
792,0.0012364387512207,0.0000459436994154503
793,0.00118923187255859,0.0000500679016113281
794,0.00117349624633789,0.000048864758800869
795,0.00113630294799805,0.0000420307003433941
796,0.00111055374145508,0.0000505807136771245
797,0.00111246109008789,0.0000483725386349146
798,0.0011439323425293,0.0000613658114318617
799,0.00113487243652344,0.0000402779241556397
800,0.00118064880371094,0.0000398772446720069
801,0.00113010406494141,0.0000386046727183726
802,0.00120162963867187,0.0000528644478347477
803,0.00116586685180664,0.0000460475103599083
804,0.00116539001464844,0.000036805373451059
805,0.00113964080810547,0.0000510393985030497
806,0.00111865997314453,0.0000556082906231432
807,0.00120353698730469,0.000057698281334907
808,0.00117778778076172,0.0000552935812445479
809,0.00111913681030273,0.0000592833442151001
810,0.00112009048461914,0.0000591403040447504
811,0.00110101699829102,0.0000548880788479869
812,0.00112676620483398,0.0000494119269702106
813,0.00115156173706055,0.0000471876085812321
814,0.00115013122558594,0.0000498813605505633
815,0.00116872787475586,0.000035515566509931
816,0.00115489959716797,0.0000505503615364793
817,0.00112199783325195,0.0000491974874876066
818,0.00107145309448242,0.0000513093178781346
819,0.00114202499389648,0.0000585597965590287
820,0.00110483169555664,0.0000506234006751884
821,0.00114250183105469,0.0000503215721476513
822,0.00113582611083984,0.0000517077078348767
823,0.00111865997314453,0.0000486677673321075
824,0.00114679336547852,0.0000493762517303618
825,0.00114870071411133,0.0000521379514054931
826,0.0011448860168457,0.0000450440783324255
827,0.00114727020263672,0.0000426176127843939
828,0.00112533569335937,0.0000499929139025923
829,0.00111484527587891,0.0000375499800911045
830,0.00108957290649414,0.0000504862248709352
831,0.00109767913818359,0.0000604267643841937
832,0.00108909606933594,0.0000602487098750959
833,0.00105381011962891,0.0000620639785679568
834,0.00112104415893555,0.0000412657036631296
835,0.00105476379394531,0.0000512694194911692
836,0.00110101699829102,0.0000469509082278728
837,0.00106287002563477,0.0000456221286768531
838,0.00105857849121094,0.0000480080541277224
839,0.00120162963867187,0.0000467117916204354
840,0.00115442276000977,0.0000577780261246223
841,0.00104856491088867,0.0000529085154320111
842,0.00105571746826172,0.000062385536805912
843,0.00109100341796875,0.0000412415904052341
844,0.00108766555786133,0.0000279250146220552
845,0.00114917755126953,0.0000479760744174827
846,0.00107526779174805,0.0000626873131716887
847,0.00113344192504883,0.0000613268943083416
848,0.0010676383972168,0.0000480908654504245
849,0.00110101699829102,0.0000481947692337077
850,0.00110340118408203,0.0000694203504097992
851,0.00120353698730469,0.0000692383316743342
852,0.0010833740234375,0.0000570284084181057
853,0.00114679336547852,0.0000398465854951223
854,0.00101375579833984,0.0000504152420498223
855,0.00117015838623047,0.0000573345874034211
856,0.00111865997314453,0.0000534153401776999
857,0.00102806091308594,0.0000478324953263733
858,0.00111913681030273,0.0000553624163578033
859,0.00106239318847656,0.0000409330748214836
860,0.00106239318847656,0.0000619778256551322
861,0.00114345550537109,0.0000628756399166758
862,0.00109577178955078,0.0000699424379555155
863,0.00104188919067383,0.0000511362000390613
864,0.00112438201904297,0.0000509591478268343
865,0.00102472305297852,0.0000577101023310022
866,0.00109052658081055,0.000063564378488476
867,0.00116491317749023,0.0000606483631077143
868,0.00113010406494141,0.0000635858372338648
869,0.00113439559936523,0.0000594451678179227
870,0.0010828971862793,0.0000519982120993904
871,0.00103616714477539,0.0000453170943089169
872,0.0011439323425293,0.0000566323174429981
873,0.00108194351196289,0.0000730666401267164
874,0.00115060806274414,0.0000488368320897433
875,0.00115108489990234,0.0000384770950596552
876,0.00107860565185547,0.0000576667468320781
877,0.00114917755126953,0.0000579322806074457
878,0.00108957290649414,0.0000438275348399203
879,0.00113010406494141,0.0000458086416592501
880,0.00111722946166992,0.0000442303414356431
881,0.00120878219604492,0.0000517329860611638
882,0.00119447708129883,0.0000425074317658513
883,0.00111770629882812,0.0000398914967255971
884,0.00110006332397461,0.0000637411970902266
885,0.00117635726928711,0.0000759983296106499
886,0.00109100341796875,0.0000936399403021638
887,0.00112295150756836,0.0000694989135702176
888,0.00115108489990234,0.0000524098052485598
889,0.00111770629882812,0.0000521085063319136
890,0.00123167037963867,0.0000521521227339017
891,0.00113010406494141,0.0000556716316445521
892,0.00114917755126953,0.0000454798672547214
893,0.00122976303100586,0.0000608644855984084
894,0.00115299224853516,0.0000611858444917843
895,0.00107622146606445,0.0000715652991285497
896,0.00108098983764648,0.0000653771393606502
897,0.00116825103759766,0.0000652849105550692
898,0.00110912322998047,0.0000743713118670907
899,0.00121021270751953,0.00005975989151052
900,0.00111103057861328,0.0000680291392711355
901,0.00111150741577148,0.0000607073819104533
902,0.00118923187255859,0.0000743988222688373
903,0.00113964080810547,0.000057009466904941
904,0.00104665756225586,0.0000760626266418209
905,0.00110673904418945,0.0000524401651184297
906,0.00110626220703125,0.0000687704329579161
907,0.00121831893920898,0.0000684024523922266
908,0.00114917755126953,0.0000512771799422076
909,0.00110673904418945,0.0000612155661983119
910,0.00105667114257812,0.0000771681058459922
911,0.00115156173706055,0.0000629966676196938
912,0.00101327896118164,0.0000720608076541787
913,0.000964164733886719,0.0000752300349292587
914,0.00104904174804687,0.0000735257540412765
915,0.00113296508789062,0.0000637893352820993
916,0.00110769271850586,0.000084579137952541
917,0.00112199783325195,0.0000745850142012061
918,0.00106668472290039,0.0000576292771979796
919,0.00105905532836914,0.0000581936725258984
920,0.00104045867919922,0.0000526435565206212
921,0.0010676383972168,0.00008395990745449
922,0.0010828971862793,0.0000757706097701583
923,0.000992298126220703,0.0000626782447449525
924,0.00104427337646484,0.0000656461215204339
925,0.000967502593994141,0.0000757916125728818
926,0.000947952270507813,0.0000698887780396217
927,0.000944137573242188,0.0000954127204171232
928,0.000989913940429688,0.0000619356220474354
929,0.000960826873779297,0.0000440500504679909
930,0.000880241394042969,0.000069864373544317
931,0.000825405120849609,0.0000887327201952484
932,0.000921726226806641,0.0000765542714977375
933,0.000769138336181641,0.000093284753880596
934,0.000844001770019531,0.0000752511886079794
935,0.000864982604980469,0.000068505420669815
936,0.000842571258544922,0.0000618382605965294
937,0.000779151916503906,0.0000783915067223754
938,0.000695228576660156,0.0000899997767441103
939,0.000699996948242188,0.00007793479962196
940,0.000761508941650391,0.0000632721763773698
941,0.000639438629150391,0.0000592545719433901
942,0.000619411468505859,0.0000745941591912314
943,0.000559806823730469,0.000109057151141429
944,0.000483512878417969,0.00009331399827879
945,0.000602245330810547,0.000118700850543988
946,0.000524997711181641,0.0001190967028154
947,0.000578403472900391,0.000110371065209803
948,0.000443458557128906,0.000102425687134384
949,0.000349998474121094,0.0000920826753772337
950,0.000325679779052734,0.0000929893589455596
951,0.000406265258789063,0.0000942402024765049
952,0.000386238098144531,0.0000935500548787119
953,0.000319957733154297,0.00012038226022986
954,0.000330448150634766,0.00011158397047637
955,0.000342369079589844,0.0000765824822291804
956,0.000168323516845703,0.000107162189469681
957,0.000102519989013672,0.000108601691020865
958,0.00011444091796875,0.000129049438139668
959,0.0000872611999511719,0.000120603043154406
960,0.000188350677490234,0.0000855892813115641
961,-0.000212669372558594,0.0000985519858766585
962,0.000153064727783203,0.0000971718786162259
963,0.000149250030517578,0.000131537930676015
964,-0.000152111053466797,0.000150583936409574
965,0.000136375427246094,0.000127963051740414
966,0.000161647796630859,0.000152989692953893
967,0.000112533569335937,0.000169179780898292
968,0.00003814697265625,0.000143095645341554
969,0.0000238418579101562,0.000159212206922438
970,0.000126838684082031,0.000154342104523803
971,0.0000357627868652344,0.000126591060684548
972,0.0000505447387695313,0.000137335724141124
973,0.000285148620605469,0.000106937045184267
974,0.000329017639160156,0.000107602612890767
975,0.0000290870666503906,0.000109740940826686
976,0.000246047973632812,0.000110537806070902
977,0.000209331512451172,0.00015852235996851
978,0.000460624694824219,0.000152459686780508
979,0.0004730224609375,0.000162116218797295
980,0.000555992126464844,0.000186369532544105
981,0.000149726867675781,0.000180997235221594
982,0.00041961669921875,0.000193786057899438
983,0.000249862670898437,0.000184352917025608
984,0.000723361968994141,0.000139884875911031
985,0.000751495361328125,0.000128254127326434
986,0.000796794891357422,0.000152140199027479
987,0.000838756561279297,0.000157861188480824
988,0.000933647155761719,0.000219693115125818
989,0.00105476379394531,0.000215391097163827
990,0.000908374786376953,0.000204482540622197
991,0.000502109527587891,0.000277222477984402
992,0.000831127166748047,0.000227262810693437
993,0.000980377197265625,0.000205644558992057
994,0.000945568084716797,0.000214854167013783
995,0.0008544921875,0.000191766808315429
996,0.000862598419189453,0.00019056789719623
997,0.000879287719726563,0.000196928550707097
998,0.000990390777587891,0.000268475835234585
999,0.00107622146606445,0.000248255914271827
1000,0.000973224639892578,0.000209391787286582
1001,0.00136375427246094,0.00017368920305479
1002,0.00118350982666016,0.000231630981189884
1003,0.000764846801757813,0.000237187065989835
1004,0.0014643669128418,0.000245796489090817
1005,0.00130414962768555,0.00024970246048997
1006,0.00124073028564453,0.000224545245500517
1007,0.00103759765625,0.000262411247587888
1008,0.00132656097412109,0.000203125913267192
1009,0.000978469848632813,0.000200239814778084
1010,0.000892162322998047,0.000213286441184803
1011,0.00153303146362305,0.000209200585681095
1012,0.0012660026550293,0.000259672750186547
1013,0.00139045715332031,0.00020862156997454
1014,0.00139331817626953,0.000218110132435279
1015,0.000916004180908203,0.000268496160198483
1016,0.00139284133911133,0.000241240019435097
1017,0.00104141235351562,0.000286699307929807
1018,0.00109958648681641,0.000259090688656417
1019,0.0011439323425293,0.000358012945759585
1020,0.00160789489746094,0.000288022274725606
1021,0.00104379653930664,0.000218630747028816
1022,0.00185251235961914,0.000270823357060974
1023,0.00155258178710937,0.000310523152569927
1024,0.0017247200012207,0.000283271775064199
1025,0.00118207931518555,0.000252433826546718
1026,0.00127172470092773,0.00028577786170451
1027,0.00153827667236328,0.000424341135215302
1028,0.00170707702636719,0.000291194110578654
1029,0.00126409530639648,0.000344333221316105
1030,0.00134372711181641,0.000270487322788743
1031,0.00121116638183594,0.000377577956841114
1032,0.00129938125610352,0.000419980671558864
1033,0.00184917449951172,0.000342813750284744
1034,0.00165319442749023,0.000403312916260668
1035,0.00113487243652344,0.000296609577545802
1036,0.00137710571289062,0.000250335420847634
1037,0.00135231018066406,0.000250015503246198
1038,0.000921249389648438,0.000369710886693981
1039,0.00122165679931641,0.000304220612142592
1040,0.00149679183959961,0.000361058627612365
1041,0.00158452987670898,0.000405014153347467
1042,0.000474929809570313,0.000334993630181766
1043,0.00167942047119141,0.000464297396280688
1044,0.00126075744628906,0.000498208809687518
1045,0.00158834457397461,0.000576107700459377
1046,0.00181674957275391,0.000562470611658888
1047,0.00145816802978516,0.000335595810328355
1048,0.000872611999511719,0.00042665815772027
1049,0.00179433822631836,0.000382279490269716
1050,0.00215482711791992,0.000607016511717331
1051,0.000607013702392578,0.000548746555178796
1052,0.00221681594848633,0.000495470291644765
1053,0.00142669677734375,0.000447133943379981
1054,0.00142049789428711,0.000486534690458803
1055,0.000698089599609375,0.000645056171228461
1056,0.00149345397949219,0.00055323632653527
1057,0.00154495239257812,0.000425770459235232
1058,0.00172901153564453,0.000521135677062136
1059,0.000562667846679688,0.000791620917734234
1060,0.000783443450927734,0.00067063853450509
1061,0.00160646438598633,0.000646306991011447
1062,0.00290584564208984,0.000736029007663177
1063,0.00168895721435547,0.000839059985190802
1064,-0.000192165374755859,0.000876965632062733
1065,0.000848770141601563,0.00066227583143144
1066,-0.000217437744140625,0.000754828251227705
1067,0.00157308578491211,0.000839181378226177
1068,0.00169610977172852,0.000959712937530932
1069,0.00185585021972656,0.000665443296156181
1070,0.00128841400146484,0.00069381363185972
1071,0.00148534774780273,0.000890844121546646
1072,0.000675678253173828,0.00107560934744733
1073,0.000405788421630859,0.000842832304665618
1074,0.000384330749511719,0.000570638420600265
1075,0.00290489196777344,0.000636551710023526
1076,0.000733375549316406,0.00138922035877931
1077,0.00156545639038086,0.00115780932404138
1078,0.000629901885986328,0.00125287109945655
1079,0.00135517120361328,0.00147667714587188
1080,0.000307083129882812,0.0013901418425208
1081,0.000782012939453125,0.0010654689159217
1082,0.00355434417724609,0.00108248714627427
1083,0.0000367164611816406,0.00145851197312315
1084,0.00338029861450195,0.00142054327232509
1085,-0.000180244445800781,0.00189921360870381
1086,0.00363445281982422,0.00151173714077036
1087,0.000797748565673828,0.0010943860520655
1088,0.00260066986083984,0.00114956014445459
1089,-0.000181198120117187,0.00127996594644953
1090,0.0000290870666503906,0.00131356373749351
1091,0.000614166259765625,0.00171930737561075
1092,0.00289249420166016,0.00222276095393434
1093,0.000846385955810547,0.0018832090601247
1094,0.00149106979370117,0.00176564036632704
1095,0.00303840637207031,0.00216018327002846
1096,0.0029139518737793,0.00166796083917462
1097,0.000320911407470703,0.00165833625888047
1098,-0.00119113922119141,0.00219678873609042
1099,0.00172758102416992,0.00255720188050584
1100,0.000690937042236328,0.00192357598990716
