Wavelength (nm),Absorbance (AU),Std.Dev.
190,0.305503368377686,0.000108484383396605
191,0.297763824462891,0.00008243906330738
192,0.291309833526611,0.0000641412447920201
193,0.285679817199707,0.0000467823183796916
194,0.281027793884277,0.000044214916730227
195,0.276863574981689,0.0000602920943088617
196,0.273411273956299,0.0000440487600210814
197,0.27032470703125,0.0000408566253900942
198,0.267289161682129,0.0000387926883693439
199,0.264188766479492,0.0000368354775753958
200,0.261250019073486,0.0000341804445238237
201,0.258319854736328,0.0000458904672231087
202,0.255500316619873,0.0000476932516099929
203,0.252784729003906,0.0000540364019901583
204,0.250099182128906,0.0000493359422289653
205,0.247192859649658,0.0000450011515445455
206,0.244110584259033,0.000046559431071221
207,0.240943908691406,0.0000481699943730346
208,0.237579822540283,0.0000602062383305584
209,0.234160900115967,0.0000435647571888638
210,0.230597496032715,0.0000394256678922348
211,0.226930141448975,0.0000309301590591998
212,0.223454475402832,0.0000430350488544394
213,0.219846725463867,0.0000409219637803393
214,0.21623420715332,0.0000408058117023746
215,0.21270751953125,0.0000369564179131127
216,0.209278106689453,0.0000349256771635723
217,0.205869674682617,0.0000345715160929825
218,0.202608108520508,0.0000315308007490379
219,0.199446678161621,0.000024884778581889
220,0.19633150100708,0.0000246391500144268
221,0.193288803100586,0.0000356170546047347
222,0.190486431121826,0.0000300047674198198
223,0.187591552734375,0.0000251381838539621
224,0.184879779815674,0.0000264096336480102
225,0.182078838348389,0.0000305910641316297
226,0.179424285888672,0.0000287934239729297
227,0.176746845245361,0.0000313635993372298
228,0.17413854598999,0.0000450099927593773
229,0.171551704406738,0.0000553665232096585
230,0.169034481048584,0.0000443407281351765
231,0.166600704193115,0.0000476479396123345
232,0.164115428924561,0.0000394098050430836
233,0.161693572998047,0.0000280524560548453
234,0.159337520599365,0.0000336432185790303
235,0.156943798065186,0.0000385449923954453
236,0.154716968536377,0.0000478598203759178
237,0.152588367462158,0.0000468769974115356
238,0.150515079498291,0.0000316468670946837
239,0.148464202880859,0.0000335408423071671
240,0.146573066711426,0.0000275587539522246
241,0.14481782913208,0.0000307938616194202
242,0.143017292022705,0.0000389447827320179
243,0.141325950622559,0.0000318009632708293
244,0.139768600463867,0.0000388175906923948
245,0.138248443603516,0.0000338923561933839
246,0.136869430541992,0.0000368022844562192
247,0.135444164276123,0.0000388680787158781
248,0.134200096130371,0.0000393513458042559
249,0.133020401000977,0.0000481298556554624
250,0.131855010986328,0.0000350345535644659
251,0.130775928497314,0.0000379759710859059
252,0.129726409912109,0.0000347919617820109
253,0.128740310668945,0.0000413551440967763
254,0.127792358398437,0.0000455136009356057
255,0.126730918884277,0.0000361375248863035
256,0.125778198242187,0.0000327684632273267
257,0.124792575836182,0.0000274181365966797
258,0.123815536499023,0.0000401549551040177
259,0.122758865356445,0.0000476706009949254
260,0.121730327606201,0.0000336719294457219
261,0.120701789855957,0.000044114524684265
262,0.119520664215088,0.0000489321825515167
263,0.118324756622314,0.000049840319062154
264,0.117187976837158,0.0000492967528660587
265,0.116013050079346,0.0000485613640135806
266,0.114708423614502,0.0000504242612801015
267,0.113444328308105,0.000041417637479478
268,0.1120924949646,0.0000394573744587583
269,0.110798358917236,0.0000449101123135891
270,0.109466075897217,0.0000560471320683402
271,0.108067989349365,0.0000605076104468432
272,0.106706142425537,0.0000578409566005933
273,0.10524320602417,0.000057204562204242
274,0.103778839111328,0.0000547636629444765
275,0.102462768554687,0.0000382184313001897
276,0.101099967956543,0.0000507041827489274
277,0.0996756553649902,0.0000617683598125888
278,0.0982308387756348,0.0000516989125111466
279,0.0967841148376465,0.0000389907327121755
280,0.0955057144165039,0.000040275101497228
281,0.0942511558532715,0.0000499906397918307
282,0.0928349494934082,0.0000518657686163897
283,0.0915307998657227,0.0000524965011520739
284,0.0902509689331055,0.0000423842254412902
285,0.0888857841491699,0.0000366831603694653
286,0.0876669883728027,0.0000474423019383815
287,0.0864276885986328,0.0000405872181676229
288,0.0851359367370606,0.000038267481713488
289,0.0838212966918945,0.000046631407282017
290,0.0825920104980469,0.000040387853961677
291,0.0813565254211426,0.0000385272915828803
292,0.0801787376403809,0.0000440603726826535
293,0.0790624618530273,0.0000482053831333165
294,0.0778050422668457,0.0000387391675355085
295,0.0767035484313965,0.0000422189422560343
296,0.0757465362548828,0.0000397258585537508
297,0.074549674987793,0.0000421926793636383
298,0.0735783576965332,0.0000501507119681796
299,0.0724849700927734,0.0000400131445356838
300,0.0714788436889648,0.0000362827333231312
301,0.0703930854797363,0.000036730392092141
302,0.0694327354431152,0.0000386385242078455
303,0.068385124206543,0.000062080462295015
304,0.0674896240234375,0.0000678484151106249
305,0.0665454864501953,0.0000476288479799494
306,0.0655999183654785,0.0000290582271563128
307,0.0646882057189941,0.0000282568767387399
308,0.0637736320495606,0.0000401216746749088
309,0.0630230903625488,0.0000586693820122333
310,0.0620312690734863,0.0000451889696624704
311,0.0611763000488281,0.0000384719240524531
312,0.0603017807006836,0.0000435817163247966
313,0.0594358444213867,0.0000529117384493509
314,0.0586180686950684,0.0000529192580597703
315,0.0577459335327148,0.0000474818247212275
316,0.0569610595703125,0.0000574217672528461
317,0.0562663078308106,0.0000599972194587343
318,0.0554232597351074,0.0000445747110238606
319,0.0546393394470215,0.0000439660926371748
320,0.0539250373840332,0.00005548856301991
321,0.0530972480773926,0.0000464592111532536
322,0.0525112152099609,0.0000470404146390477
323,0.0516400337219238,0.0000469533295634887
324,0.0508928298950195,0.0000554065490623338
325,0.0502409934997559,0.0000506099244602085
326,0.0495376586914063,0.0000436651114212391
327,0.0487480163574219,0.0000495394566572598
328,0.0481348037719727,0.000059964050092195
329,0.0474185943603516,0.0000576637895882835
330,0.0466403961181641,0.0000375424102936097
331,0.0459742546081543,0.000044500685683176
332,0.0452322959899902,0.0000434236098274973
333,0.0446071624755859,0.000052799892373086
334,0.0439200401306152,0.0000299734922071999
335,0.0432562828063965,0.0000330405487124808
336,0.0425825119018555,0.0000498346161822152
337,0.0419063568115234,0.000044303535448807
338,0.0412478446960449,0.0000416502996002927
339,0.0406155586242676,0.0000473991485899755
340,0.0399508476257324,0.0000412133255025581
341,0.0393919944763184,0.000046572858800923
342,0.038724422454834,0.0000516648164892301
343,0.0381765365600586,0.0000629768133582218
344,0.0376543998718262,0.0000460166387234316
345,0.0370321273803711,0.000055269931514159
346,0.0364813804626465,0.0000488670853063956
347,0.0358781814575195,0.0000322200459132965
348,0.0353164672851562,0.0000445070720275041
349,0.0347895622253418,0.0000310750060274718
350,0.0342521667480469,0.0000366319886035019
351,0.0336642265319824,0.0000535375807506968
352,0.0332064628601074,0.000044775745479229
353,0.0326876640319824,0.0000605780276570313
354,0.0321817398071289,0.0000686165191291646
355,0.0316982269287109,0.0000756279366753748
356,0.0311727523803711,0.0000706990488427431
357,0.0306410789489746,0.0000442778671178871
358,0.0301737785339355,0.0000500860635423186
359,0.0296869277954102,0.0000446014830073265
360,0.0292191505432129,0.0000424177408309443
361,0.0286784172058105,0.0000498391785383707
362,0.0282154083251953,0.000057536484317481
363,0.0277962684631348,0.0000671782160391095
364,0.0272769927978516,0.000056931640969177
365,0.0268435478210449,0.0000635518575408944
366,0.0264153480529785,0.0000565579928301306
367,0.0260496139526367,0.0000597636961766925
368,0.0254426002502441,0.0000637732932555085
369,0.0250835418701172,0.0000728000892918841
370,0.024726390838623,0.0000685468963778404
371,0.0243005752563477,0.0000673269752301132
372,0.0238075256347656,0.0000664533785782066
373,0.0234971046447754,0.0000725967934767003
374,0.0232419967651367,0.000058737164251757
375,0.0227184295654297,0.0000871842988735199
376,0.022468090057373,0.0000649479516753442
377,0.022066593170166,0.0000801682250650368
378,0.021580696105957,0.0000869701827484257
379,0.0212407112121582,0.0000895565688689812
380,0.0209345817565918,0.000126745433517012
381,0.0206484794616699,0.0000920456294147947
382,0.0203733444213867,0.0000853272082126665
383,0.0200395584106445,0.0000777595534391876
384,0.0197224617004395,0.0000869832536989103
385,0.0193476676940918,0.0000752678051848436
386,0.0191278457641602,0.0000933797646883304
387,0.0187616348266602,0.0000675191986966433
388,0.0184817314147949,0.0000940252266606348
389,0.0181078910827637,0.000108045449902374
390,0.017974853515625,0.000116736514698764
391,0.017545223236084,0.0000918601755008623
392,0.0173583030700684,0.000066808272309278
393,0.0169219970703125,0.0000800007138491657
394,0.0165843963623047,0.00007861018859662
395,0.0163002014160156,0.0000862231817202738
396,0.0160822868347168,0.0000720923537782017
397,0.015963077545166,0.0000611523903049982
398,0.0157155990600586,0.0000500713074751878
399,0.015286922454834,0.0000586112205591564
400,0.0153017044067383,0.0000666924571373743
401,0.0149641036987305,0.000100541428589687
402,0.0146136283874512,0.0000855759974448187
403,0.014503002166748,0.0000891978679740137
404,0.0142312049865723,0.0000752436344054198
405,0.0139651298522949,0.0000608551455407153
406,0.0138344764709473,0.0000804668885666453
407,0.0135536193847656,0.0000675579143192861
408,0.0133123397827148,0.0000616725777214994
409,0.0131206512451172,0.0000847094199207677
410,0.0129132270812988,0.0000843961359123431
411,0.0127339363098145,0.0000604634405290834
412,0.0126276016235352,0.0000516395048930393
413,0.0123486518859863,0.0000550297764523052
414,0.0121574401855469,0.0000616209410825733
415,0.0120120048522949,0.0000641270636632171
416,0.0118327140808105,0.0000541236431476382
417,0.0116658210754395,0.0000569506083668997
418,0.0114350318908691,0.0000841762784152248
419,0.0113339424133301,0.0000885968059449733
420,0.011162281036377,0.0000891621735277756
421,0.0110640525817871,0.0000714158169726227
422,0.0107731819152832,0.0000580655710926016
423,0.0105762481689453,0.0000658052554802149
424,0.0105009078979492,0.0000608383298234152
425,0.0104174613952637,0.0000531250952605181
426,0.0102715492248535,0.0000583039461332939
427,0.0101323127746582,0.0000515425457644335
428,0.00992345809936523,0.0000477599488279301
429,0.00989580154418945,0.0000624875037778484
430,0.00979852676391602,0.0000450339815929694
431,0.00961399078369141,0.0000409740207455159
432,0.00945949554443359,0.0000510015180859411
433,0.00940656661987305,0.0000541404445583561
434,0.00916004180908203,0.0000522131244857493
435,0.00906038284301758,0.0000660415160512846
436,0.00903415679931641,0.0000590450723225154
437,0.00889158248901367,0.0000602515402469235
438,0.00876712799072266,0.0000489042943426202
439,0.00864982604980469,0.0000439971111084121
440,0.00850582122802734,0.0000707408455054793
441,0.00848770141601563,0.0000663968989725336
442,0.00824069976806641,0.0000638160630316829
443,0.00819492340087891,0.000038746503526548
444,0.00808525085449219,0.0000374673867808594
445,0.00799274444580078,0.0000364242418755869
446,0.00792360305786133,0.0000480317290744853
447,0.00773525238037109,0.0000574296861313189
448,0.00767374038696289,0.0000525917015785684
449,0.00763797760009766,0.0000451398847194421
450,0.00761318206787109,0.0000420827365389714
451,0.00751304626464844,0.0000751438477585306
452,0.00743436813354492,0.000086951880116754
453,0.00731086730957031,0.0000693712032529061
454,0.0072636604309082,0.0000667606080412561
455,0.00726032257080078,0.0000596780325187172
456,0.00717401504516602,0.0000592718369824437
457,0.0070652961730957,0.0000481841529960924
458,0.00692987442016602,0.0000524900039263036
459,0.00699043273925781,0.0000626945669686549
460,0.00677061080932617,0.0000632416235642828
461,0.00676774978637695,0.0000745819656220137
462,0.00667142868041992,0.0000669001003543685
463,0.00662040710449219,0.0000532672140801084
464,0.00665044784545898,0.0000503712501757801
465,0.00650167465209961,0.0000516108768363556
466,0.00637102127075195,0.0000465887229464502
467,0.00639486312866211,0.0000589554720926138
468,0.00639247894287109,0.0000597170723131305
469,0.00629377365112305,0.0000638570238532843
470,0.00617790222167969,0.0000764279380994714
471,0.00626277923583984,0.0000650371623325499
472,0.0060882568359375,0.000056856707877032
473,0.00594663619995117,0.0000638035914752111
474,0.00589656829833984,0.000077017689169197
475,0.0058894157409668,0.0000754126671732682
476,0.0058741569519043,0.0000668354937720799
477,0.00586748123168945,0.0000755015590371303
478,0.00579595565795898,0.0000818786469138547
479,0.005706787109375,0.0000845159394081917
480,0.00573348999023438,0.0000715954756894053
481,0.00561094284057617,0.0000579901427813849
482,0.00559425354003906,0.000085184526048428
483,0.00561428070068359,0.0000772799906780011
484,0.00536012649536133,0.0000518383620808551
485,0.00588464736938477,0.0000706121613377939
486,0.00529098510742188,0.0000524661738814018
487,0.0051569938659668,0.0000604079474671043
488,0.00523281097412109,0.0000658346185627204
489,0.00518321990966797,0.0000578635555227927
490,0.00517463684082031,0.0000662288877528182
491,0.00513792037963867,0.0000671087951724966
492,0.00507450103759766,0.0000619888305664063
493,0.00503206253051758,0.0000674282137844602
494,0.00497293472290039,0.0000571856790382198
495,0.00491619110107422,0.0000684954627628404
496,0.0049443244934082,0.000082851742658988
497,0.00474882125854492,0.0000740572780040301
498,0.00486278533935547,0.0000605921012788125
499,0.00471782684326172,0.0000613935942735271
500,0.00479984283447266,0.0000663729234079125
501,0.00464487075805664,0.0000651262507881273
502,0.00470066070556641,0.0000576992665104142
503,0.00461101531982422,0.000058629644595126
504,0.00450897216796875,0.0000670952412627047
505,0.00455856323242188,0.0000625983859423601
506,0.00450801849365234,0.0000588609070569444
507,0.00443649291992188,0.000057170766869935
508,0.00438737869262695,0.0000648375808098198
509,0.0043940544128418,0.0000609242280605429
510,0.00441741943359375,0.0000488403238019052
511,0.00427341461181641,0.0000635232289646161
512,0.00421524047851563,0.0000919665481527786
513,0.00415420532226563,0.0000699017902866233
514,0.00426435470581055,0.0000524553384640331
515,0.00417089462280273,0.0000679756414633754
516,0.00412893295288086,0.0000762402822596479
517,0.00418806076049805,0.0000498175036253612
518,0.00409841537475586,0.0000563505728844211
519,0.00405979156494141,0.0000620603149229273
520,0.00402641296386719,0.0000654970162265997
521,0.00402545928955078,0.0000652291621023082
522,0.003936767578125,0.0000467105747080172
523,0.00397062301635742,0.0000510705730436747
524,0.00392866134643555,0.0000670274306018276
525,0.00383472442626953,0.0000512172831531366
526,0.00387048721313477,0.0000652727196496
527,0.0037693977355957,0.0000804202513320326
528,0.00370073318481445,0.0000475021721092692
529,0.00380134582519531,0.0000257481027295916
530,0.00376653671264648,0.0000286226444328856
531,0.00362825393676758,0.0000421697701634894
532,0.00365066528320312,0.0000544200525785128
533,0.00371885299682617,0.0000547947934043726
534,0.00364494323730469,0.0000647445834064243
535,0.00345373153686523,0.0000564664595201474
536,0.0036158561706543,0.0000553316052527226
537,0.0035862922668457,0.0000482100996719641
538,0.00349807739257812,0.0000472020618794161
539,0.00345945358276367,0.0000520954142904193
540,0.00344038009643555,0.0000632470163096472
541,0.00347089767456055,0.000055162867025353
542,0.00343799591064453,0.0000468830600591485
543,0.00335836410522461,0.0000457328848156835
544,0.00337505340576172,0.0000458817956720436
545,0.00325393676757812,0.0000418606267657584
546,0.0033268928527832,0.0000508094549368762
547,0.00336742401123047,0.0000393961001696298
548,0.00335693359375,0.0000538551632060833
549,0.00325536727905273,0.0000470537051105274
550,0.00321817398071289,0.0000406725604761642
551,0.00319480895996094,0.0000477623291488381
552,0.00318002700805664,0.0000503023652244108
553,0.00315284729003906,0.0000596246685726022
554,0.00313186645507812,0.0000677494825528028
555,0.00304222106933594,0.0000603166021417771
556,0.00303745269775391,0.0000656980553817149
557,0.00303363800048828,0.0000470718224333231
558,0.003082275390625,0.0000467069237805284
559,0.00305080413818359,0.0000458694048981884
560,0.00300836563110352,0.0000517911889147547
561,0.00291872024536133,0.0000534483195083697
562,0.00293827056884766,0.000045075616066347
563,0.00295448303222656,0.0000655941465407721
564,0.00289440155029297,0.0000615101451743969
565,0.00284624099731445,0.0000502299909372461
566,0.00286436080932617,0.000050481720992531
567,0.00285530090332031,0.0000539195094660076
568,0.00277376174926758,0.0000580675289640037
569,0.00283241271972656,0.0000507501261927812
570,0.00286865234375,0.0000319756559752783
571,0.00281620025634766,0.0000437431499287891
572,0.00271844863891602,0.0000511462035343229
573,0.00282001495361328,0.0000429312358678718
574,0.00275421142578125,0.0000580342361671356
575,0.00271224975585937,0.0000510950539821536
576,0.00276851654052734,0.0000450957886411167
577,0.00272893905639648,0.0000396291556342853
578,0.00266027450561523,0.0000444955759477495
579,0.00262689590454102,0.0000495956492138664
580,0.00267934799194336,0.0000525949440102598
581,0.00268220901489258,0.0000344595272747941
582,0.00257778167724609,0.0000361461752128171
583,0.00252294540405273,0.0000466033619799447
584,0.00260829925537109,0.0000406376057949308
585,0.00263786315917969,0.0000468442455559126
586,0.0025172233581543,0.0000450529111232752
587,0.00256967544555664,0.0000379722288366545
588,0.00244140625,0.0000429954046936686
589,0.00242328643798828,0.0000577317678707713
590,0.00246047973632812,0.000058739099737852
591,0.00243902206420898,0.0000453847785699153
592,0.00253105163574219,0.0000450529111232752
593,0.00241708755493164,0.0000332702854733246
594,0.00242376327514648,0.0000346487085811328
595,0.00241231918334961,0.0000344925029065261
596,0.00233125686645508,0.000043891040830593
597,0.00230693817138672,0.0000546743240566554
598,0.00233840942382812,0.0000484523807356395
599,0.00240325927734375,0.000039424226078784
600,0.002349853515625,0.0000497775514478427
601,0.00227165222167969,0.0000430251412388277
602,0.00226020812988281,0.0000396642824693777
603,0.00225210189819336,0.0000582171109396268
604,0.00222396850585937,0.0000485379474030892
605,0.00228977203369141,0.0000329949262466549
606,0.00226593017578125,0.0000419819847696391
607,0.00224161148071289,0.0000425675658574222
608,0.0022273063659668,0.0000371014855650461
609,0.00218820571899414,0.0000371994111344187
610,0.00216436386108398,0.0000319685443475062
611,0.00215482711791992,0.0000415005873219117
612,0.00215244293212891,0.0000464995695316356
613,0.00214242935180664,0.0000335535505417409
614,0.00220823287963867,0.0000419928153366738
615,0.002166748046875,0.0000487447936541101
616,0.00210762023925781,0.0000410426348389231
617,0.00217437744140625,0.0000261647418303744
618,0.00209140777587891,0.000036707945244803
619,0.00199460983276367,0.0000310264934919785
620,0.00208044052124023,0.000037718391896372
621,0.00198793411254883,0.0000425421862756167
622,0.00203752517700195,0.0000353149346566878
