Wavelength (nm),Absorbance (AU),Std.Dev.
190,0.286377429962158,0.0000661653440026121
191,0.258172512054443,0.00004363255418247
192,0.234076023101807,0.0000579724960367105
193,0.214465141296387,0.0000450390302456302
194,0.198048114776611,0.0000393643442488964
195,0.18428897857666,0.0000371267567120498
196,0.173009395599365,0.0000319151566276404
197,0.163266658782959,0.0000288776968679548
198,0.154650211334229,0.000023809649646705
199,0.147026062011719,0.0000314947243061612
200,0.140130996704102,0.0000422660398492527
201,0.133969306945801,0.0000272225577727067
202,0.128732204437256,0.0000242220838858227
203,0.1240553855896,0.000030517578125
204,0.119972705841064,0.0000245200497815719
205,0.11629581451416,0.0000275561755483613
206,0.112779140472412,0.0000372360668284505
207,0.109538555145264,0.000035084814883804
208,0.106666564941406,0.0000356736662183153
209,0.10391902923584,0.0000351826987184462
210,0.101277828216553,0.0000323310010582939
211,0.0988202095031738,0.0000425047571649699
212,0.0965242385864258,0.0000337781157463548
213,0.0943212509155273,0.0000309861612333298
214,0.0923271179199219,0.000026286662010837
215,0.0902252197265625,0.000028938653534103
216,0.0881428718566895,0.0000291597716216948
217,0.0861172676086426,0.0000290112406036445
218,0.0840997695922852,0.0000359118850398306
219,0.0820078849792481,0.0000306374831807138
220,0.0798978805541992,0.0000288963908015489
221,0.0778279304504395,0.0000236329222064659
222,0.0758566856384277,0.0000288067466097702
223,0.0739068984985352,0.0000334500501771843
224,0.0721640586853027,0.0000222369265113273
225,0.0705409049987793,0.0000217791163430478
226,0.0690913200378418,0.0000190096771291064
227,0.0677785873413086,0.0000184161955526382
228,0.0666165351867676,0.0000248367627012356
229,0.0654935836791992,0.0000322403281200539
230,0.0644168853759766,0.0000316989134703779
231,0.0633902549743652,0.000027581948740501
232,0.0624241828918457,0.0000253358305071232
233,0.061398983001709,0.0000314920169069007
234,0.060450553894043,0.0000228297461119205
235,0.0595149993896484,0.0000334610941438163
236,0.0585556030273438,0.0000464371827085108
237,0.0575714111328125,0.0000313373085034328
238,0.0566987991333008,0.0000258136974801329
239,0.055811882019043,0.000030424303323649
240,0.055020809173584,0.000027260638959437
241,0.0543384552001953,0.0000205731887863203
242,0.053715705871582,0.000023444560961438
243,0.0531115531921387,0.0000233534618902642
244,0.0524110794067383,0.0000280701808070253
245,0.0517611503601074,0.000025799380092371
246,0.051173210144043,0.00003860393648676
247,0.0505342483520508,0.0000260280592050792
248,0.0498671531677246,0.0000259558895115983
249,0.049222469329834,0.0000306003535746581
250,0.0485577583312988,0.0000336955553200386
251,0.0478267669677734,0.0000392783303018495
252,0.0471725463867188,0.0000302147932081953
253,0.0464482307434082,0.0000293574507879613
254,0.0458407402038574,0.0000249190189942435
255,0.0453290939331055,0.0000303213696368536
256,0.0446739196777344,0.0000262709796181737
257,0.0441756248474121,0.0000276704251927153
258,0.0436367988586426,0.0000398287495428688
259,0.0430312156677246,0.0000409705523389624
260,0.0426173210144043,0.0000354891480835892
261,0.0422182083129883,0.0000380888137931013
262,0.0416536331176758,0.0000402842744139349
263,0.0411601066589356,0.0000355619513358766
264,0.0407013893127441,0.0000263185387232722
265,0.0401692390441895,0.0000367976504777589
266,0.0396065711975098,0.0000314323951238162
267,0.0390477180480957,0.0000328395088670225
268,0.0384011268615723,0.0000310228290897581
269,0.0379939079284668,0.0000369194845693072
270,0.0375089645385742,0.0000464420788214147
271,0.0370802879333496,0.0000485531694845499
272,0.0365147590637207,0.0000441608878338808
273,0.0359830856323242,0.0000387655706061859
274,0.0355396270751953,0.000032712905763224
275,0.0351405143737793,0.0000298533003637651
276,0.0345873832702637,0.0000323643890618703
277,0.0339851379394531,0.0000426616055146235
278,0.0334978103637695,0.0000476001961738795
279,0.032874584197998,0.0000373168872663848
280,0.0323553085327148,0.0000381425020459267
281,0.0316596031188965,0.0000411256499618484
282,0.0309634208679199,0.0000372536182334901
283,0.0302724838256836,0.0000357087044274312
284,0.0295515060424805,0.0000270849172438861
285,0.0287799835205078,0.0000275484388888127
286,0.0279102325439453,0.0000401004174062241
287,0.0270800590515137,0.0000357691441289705
288,0.0263309478759766,0.0000244474973690962
289,0.0255637168884277,0.000031985431881668
290,0.0247907638549805,0.0000391137287307128
291,0.0240182876586914,0.00003585564954613
292,0.0232076644897461,0.0000280423225949709
293,0.022486686706543,0.0000255397382803304
294,0.0218048095703125,0.0000256579822966742
295,0.0211572647094727,0.0000252014189864739
296,0.0205326080322266,0.0000296277656220989
297,0.0199275016784668,0.0000450516494020364
298,0.0194063186645508,0.000040999677834732
299,0.018773078918457,0.0000355595536046036
300,0.0183405876159668,0.0000398230403510039
301,0.0178432464599609,0.000043494240764585
302,0.0173540115356445,0.0000289317777613963
303,0.0169744491577148,0.0000358025012437849
304,0.0165500640869141,0.000038753104731138
305,0.0161147117614746,0.0000421083930413544
306,0.0157151222229004,0.0000455872284039197
307,0.0154433250427246,0.0000405374690360301
308,0.0151424407958984,0.0000440319807697137
309,0.0147027969360352,0.0000483149235634078
310,0.0144233703613281,0.0000627887900704433
311,0.0142030715942383,0.0000426042726855338
312,0.0139093399047852,0.0000358944693775946
313,0.0136270523071289,0.0000456993130029991
314,0.0133171081542969,0.0000382897565839476
315,0.0129656791687012,0.0000419216886697041
316,0.0127005577087402,0.0000374529711401934
317,0.012488842010498,0.0000416175320350549
318,0.0122547149658203,0.0000461818695556765
319,0.0119233131408691,0.0000412002205579224
320,0.011634349822998,0.0000503339962513033
321,0.0114002227783203,0.0000387509044545539
322,0.0111241340637207,0.0000258840676170287
323,0.0110306739807129,0.0000455772519887868
324,0.0106563568115234,0.000062139035689146
325,0.0104050636291504,0.000058264935091401
326,0.0102548599243164,0.0000537071917593244
327,0.0101103782653809,0.0000527654304995456
328,0.0098567008972168,0.0000428245166079694
329,0.00979185104370117,0.0000358263087392079
330,0.00944900512695313,0.0000468078277275392
331,0.00908946990966797,0.0000610100053584937
332,0.00895547866821289,0.0000517340848342974
333,0.00877571105957031,0.0000455747575437755
334,0.00851249694824219,0.0000355347675745036
335,0.00829839706420898,0.0000332574689986115
336,0.00808382034301758,0.0000445313317831181
337,0.00782489776611328,0.0000559110630987399
338,0.00760030746459961,0.0000566262947572785
339,0.00739002227783203,0.0000595540785874591
340,0.00720643997192383,0.0000445109033942764
341,0.00693416595458984,0.0000485028012899606
342,0.00665998458862305,0.0000542924702739345
343,0.00646400451660156,0.0000421549399291065
344,0.00621223449707031,0.0000347036239520304
345,0.00602579116821289,0.0000297927841181639
346,0.00572633743286133,0.0000276642615992636
347,0.00554227828979492,0.0000334254004868929
348,0.00521373748779297,0.0000437418504278774
349,0.00507450103759766,0.0000470875184744819
350,0.00495147705078125,0.0000292765006667924
351,0.00461053848266602,0.0000303564998783125
352,0.00439214706420898,0.0000440926140286257
353,0.00404596328735352,0.0000445198419678086
354,0.00385475158691406,0.0000546306403391711
355,0.00362777709960937,0.0000394061989595489
356,0.00342178344726562,0.0000280058117797258
357,0.00322675704956055,0.0000410959221550444
358,0.00312519073486328,0.0000567015323493757
359,0.00288534164428711,0.0000559395227749351
360,0.00284051895141602,0.0000576943404646521
361,0.00252437591552734,0.0000395127997290872
362,0.00231122970581055,0.000044808740676362
363,0.00209760665893555,0.0000521641108509182
364,0.00206279754638672,0.0000412243580141835
365,0.00188112258911133,0.0000464555404711799
366,0.00226831436157227,0.0000433331916508343
367,0.00210285186767578,0.0000628068936922105
368,0.00160360336303711,0.0000668031670501056
369,0.00179624557495117,0.0000823700824039047
370,0.00158405303955078,0.0000642581196896477
371,0.00187921524047852,0.0000565811041801122
372,0.00184345245361328,0.0000614343197136764
373,0.00189828872680664,0.0000603363896626372
374,0.00216245651245117,0.0000840086395085796
375,0.00209856033325195,0.000100947676476553
376,0.00184249877929687,0.000089668210147318
377,0.00236749649047852,0.0000666702930939991
378,0.00267601013183594,0.0000773476318206467
379,0.00186634063720703,0.0000945869937218659
380,0.0018458366394043,0.0000686893815601983
381,0.00169992446899414,0.0000656028118969721
382,0.00217914581298828,0.000058354621498863
383,0.00166606903076172,0.0000775238091770232
384,0.00189971923828125,0.0000654866008625795
385,0.00153255462646484,0.0000539500733952125
386,0.00166559219360352,0.0000814945254972465
387,0.00206089019775391,0.0000902923612865038
388,0.00165128707885742,0.0000947719100121896
389,0.000339984893798828,0.0000691101398230428
390,0.00147199630737305,0.0000771902012239241
391,0.00155830383300781,0.0000847094199207677
392,0.00214815139770508,0.0000957623886396765
393,0.00100326538085937,0.0000735983904041666
394,0.000435352325439453,0.000075210386900193
395,0.000572681427001953,0.0000624092225583893
396,0.000828266143798828,0.0000567816758979958
397,0.00173711776733398,0.0000749833064512378
398,0.00126075744628906,0.0000860872672199362
399,-0.000126838684082031,0.000070615381300008
400,0.000375747680664062,0.0000555970451626075
401,0.0000505447387695313,0.0000726938208582831
402,0.000231266021728516,0.0000632829562013473
403,0.00060272216796875,0.000074645959638897
404,0.000680446624755859,0.0000666071704491967
405,0.000550270080566406,0.0000556389485087524
406,-0.00103187561035156,0.0000766032624360016
407,-0.000491619110107422,0.0000721979328619324
408,0.000649452209472656,0.000067764583295786
409,-0.000493526458740234,0.0000583312383390773
410,-0.000655174255371094,0.0000730401844666657
411,-0.000223636627197266,0.0000722561716085726
412,0.000268936157226562,0.0000623764245062555
413,-0.000629901885986328,0.0000674484432605245
414,-0.00107765197753906,0.0000649374482465255
415,-0.000586032867431641,0.0000545535886800902
416,-0.000905990600585938,0.0000582171109396268
417,-0.000981330871582031,0.0000502367804559782
418,-0.000623226165771484,0.0000333590109421433
419,-0.000799179077148438,0.0000483725386349146
420,-0.00022125244140625,0.0000500633600990859
421,0.000666141510009766,0.0000605902249847814
422,-0.00165081024169922,0.0000623417856204903
423,-0.00146722793579102,0.0000684190706603449
424,-0.00167608261108398,0.0000707617345788729
425,-0.00194072723388672,0.0000686678620705621
426,-0.00143146514892578,0.0000540784634910317
427,-0.000186443328857422,0.0000524098052485598
428,-0.00204181671142578,0.0000445070720275041
429,0.000165462493896484,0.0000373305941124913
430,-0.00171756744384766,0.000053866772310663
431,-0.00314760208129883,0.0000624110441670223
432,-0.00244522094726562,0.0000607242338897793
433,-0.000998497009277344,0.000069734071992853
434,-0.00247907638549805,0.0000553295505690013
435,-0.00273799896240234,0.0000483760638590974
436,-0.00173854827880859,0.0000582493233591741
437,-0.00212001800537109,0.0000442110597130146
438,-0.00182104110717773,0.0000556757156875202
439,-0.00232887268066406,0.000050787074873712
440,-0.00180768966674805,0.0000353117152816269
441,-0.000520706176757813,0.0000379550097377073
442,-0.00339508056640625,0.0000564161032760537
443,-0.00177621841430664,0.0000681993834639783
444,-0.00288820266723633,0.0000731925622390554
445,-0.00248575210571289,0.000059575073536095
446,-0.00236272811889648,0.0000432675531635642
447,-0.0032353401184082,0.0000568906897751881
448,-0.00264644622802734,0.0000386105620658849
449,-0.00249385833740234,0.000051123970886659
450,-0.00318336486816406,0.0000599953245603696
451,-0.00283098220825195,0.0000675595971039455
452,-0.00309848785400391,0.000063077824523212
453,-0.00322198867797852,0.0000588860105402549
454,-0.00280046463012695,0.0000514067169039121
455,-0.00308942794799805,0.0000587584510923132
456,-0.003021240234375,0.0000701680095773548
457,-0.00230741500854492,0.0000510761379236716
458,-0.00285530090332031,0.0000743315566450114
459,-0.00346088409423828,0.0000510048616073384
460,-0.00367164611816406,0.0000480163416869129
461,-0.0034489631652832,0.000033941796800582
462,-0.00344419479370117,0.0000503136643025255
463,-0.00224018096923828,0.000073831270441975
464,-0.00303840637207031,0.0000456308495742891
465,-0.00341081619262695,0.0000450352438091949
466,-0.00437021255493164,0.0000644736033928085
467,-0.00339841842651367,0.0000860463188838312
468,-0.00384140014648437,0.0000725701665329228
469,-0.00396633148193359,0.0000585306686097398
470,-0.00332784652709961,0.0000561575718705646
471,-0.00345325469970703,0.0000509937156834695
472,-0.00300312042236328,0.0000492563783059312
473,-0.00350713729858398,0.0000649164362905487
474,-0.0036005973815918,0.0000682810165050541
475,-0.00307989120483398,0.0000541467437433015
476,-0.0040435791015625,0.0000412340090404223
477,-0.00371456146240234,0.0000628448943228401
478,-0.00341987609863281,0.0000853258758389991
479,-0.00335884094238281,0.0000927445208193857
480,-0.00357961654663086,0.000056287995882459
481,-0.0037541389465332,0.00005689468631118
482,-0.00406408309936523,0.000047570332191911
483,-0.00311374664306641,0.0000481629135006579
484,-0.00465536117553711,0.0000370593286919229
485,0.0124573707580566,0.0000435530123801461
486,-0.0133452415466309,0.0000419257563012615
487,-0.00557470321655273,0.0000532330547409126
488,-0.00572872161865234,0.000040743775038784
489,-0.00380897521972656,0.0000447236651323895
490,-0.00430154800415039,0.0000614139603693845
491,-0.00426816940307617,0.0000648989211305583
492,-0.00408601760864258,0.0000517977737960826
493,-0.00380277633666992,0.0000644189176446984
494,-0.00446796417236328,0.0000773476318206467
495,-0.00367403030395508,0.0000551834724823584
496,-0.00432920455932617,0.0000683193004172223
497,-0.00464534759521484,0.0000561109907581611
498,-0.00378227233886719,0.0000648007487463348
499,-0.00403308868408203,0.0000518153293884511
500,-0.0046839714050293,0.0000438262378411232
501,-0.00415277481079102,0.0000582834685920621
502,-0.00432205200195313,0.0000583818900150704
503,-0.00434780120849609,0.0000652239332418927
504,-0.00469303131103516,0.0000643500534356588
505,-0.0039825439453125,0.0000771548455819805
506,-0.00481986999511719,0.0000653667048957588
507,-0.00467538833618164,0.0000627072590942648
508,-0.00448179244995117,0.0000513967641131178
509,-0.00472068786621094,0.0000608943641560198
510,-0.00451374053955078,0.0000864956843824252
511,-0.00453376770019531,0.0000843031373872236
512,-0.0044093132019043,0.0000540395577383379
513,-0.00457954406738281,0.0000561099776958137
514,-0.00470733642578125,0.0000553993670643695
515,-0.00454235076904297,0.0000563778024493767
516,-0.00478124618530273,0.0000458669263417389
517,-0.00490903854370117,0.0000567025348428536
518,-0.00472259521484375,0.0000614879620354266
519,-0.00490140914916992,0.0000692284791902324
520,-0.00491476058959961,0.0000677813579533927
521,-0.00489711761474609,0.0000529783035748716
522,-0.00492954254150391,0.0000465313423877732
523,-0.00460529327392578,0.000057474209492948
524,-0.00490760803222656,0.0000649286940912334
525,-0.00480365753173828,0.0000591470317967822
526,-0.00485563278198242,0.0000536680168599245
527,-0.00484561920166016,0.0000390722881380745
528,-0.00467586517333984,0.0000350953444188255
529,-0.00504589080810547,0.0000473187306352065
530,-0.00476694107055664,0.0000536341127909286
531,-0.00487089157104492,0.000058354621498863
532,-0.00454282760620117,0.0000552750736206514
533,-0.00448894500732422,0.0000525614292373504
534,-0.00478124618530273,0.0000708291802506529
535,-0.00506830215454102,0.000075137795823776
536,-0.00516796112060547,0.0000705944489203277
537,-0.00459384918212891,0.0000700009291329558
538,-0.00474071502685547,0.0000525971055203402
539,-0.00500011444091797,0.0000395566529294563
540,-0.00497770309448242,0.0000482100996719641
541,-0.00484466552734375,0.0000515491624074054
542,-0.00487232208251953,0.0000468175419183105
543,-0.00516891479492188,0.0000671223463453688
544,-0.00510072708129883,0.0000730028189778581
545,-0.00536394119262695,0.0000446740689461232
546,-0.00513410568237305,0.0000435399588769667
547,-0.00456666946411133,0.0000409982913755451
548,-0.00536870956420898,0.0000293884144888954
549,-0.00537776947021484,0.000039599022117904
550,-0.00535392761230469,0.0000451512167502053
551,-0.00505733489990234,0.0000406487945632582
552,-0.00508785247802734,0.0000390074946140624
553,-0.0051121711730957,0.0000387626378197839
554,-0.00532150268554688,0.0000487855915993855
555,-0.00477123260498047,0.0000430508962967863
556,-0.00534820556640625,0.0000436364623336877
557,-0.00521516799926758,0.0000440926140286257
558,-0.00539302825927734,0.0000412698359498362
559,-0.00516414642333984,0.0000594241269727298
560,-0.00498294830322266,0.0000477337574638392
561,-0.00544881820678711,0.0000578773070682061
562,-0.00522661209106445,0.000047124926398394
563,-0.00507497787475586,0.0000495658406885642
564,-0.00520992279052734,0.0000406949157154893
565,-0.00542545318603516,0.0000394854567216113
566,-0.00515842437744141,0.0000435086144907262
567,-0.00487375259399414,0.0000477682794321771
568,-0.00502920150756836,0.0000498973120128068
569,-0.00454807281494141,0.0000390380847334787
570,-0.00493335723876953,0.000035140666347299
571,-0.00469398498535156,0.0000407395893928482
572,-0.00640153884887695,0.0000486023159343229
573,-0.00409173965454102,0.0000458780787912702
574,-0.00518178939819336,0.0000321962200630089
575,-0.00618505477905273,0.000035192391367159
576,-0.00398826599121094,0.0000384962955765893
577,-0.00450515747070313,0.0000441982005580604
578,-0.00618791580200195,0.000035472326113505
579,-0.00538969039916992,0.0000291670808733211
580,-0.00373029708862305,0.0000335569385914837
581,-0.00316762924194336,0.000032973384305386
582,-0.00708246231079102,0.0000352923928641574
583,-0.00686836242675781,0.0000330121496785564
584,-0.00353097915649414,0.0000320954270355695
585,-0.00468921661376953,0.0000429603552542657
586,-0.00655746459960938,0.0000456308495742891
587,-0.00369596481323242,0.0000301945623433839
588,-0.00632476806640625,0.0000386958568794051
589,-0.00591087341308594,0.0000473019096147198
590,-0.0050806999206543,0.0000428676340020324
591,-0.00574398040771484,0.000033637304476197
592,-0.00295495986938477,0.0000349232357475291
593,-0.00529575347900391,0.000036514644086984
594,-0.00490236282348633,0.0000345994566605982
595,-0.0052490234375,0.0000273319631689482
596,-0.00605249404907227,0.0000499838168387553
597,-0.00454521179199219,0.0000389921905549051
598,-0.00495290756225586,0.0000476634459328221
599,-0.00457048416137695,0.0000494153780459341
600,-0.00508880615234375,0.0000451562522955006
601,-0.00563669204711914,0.0000377296930617149
602,-0.00524091720581055,0.0000344867344470984
603,-0.00539302825927734,0.0000282382626905306
604,-0.00631999969482422,0.0000291967863119575
605,-0.00459766387939453,0.0000384719240524531
606,-0.00631427764892578,0.0000228260109804181
607,-0.00560903549194336,0.0000203973329996098
608,-0.00628519058227539,0.000030796630395103
609,-0.00603961944580078,0.0000378026923665592
610,-0.00538539886474609,0.0000314251605543841
611,-0.00658702850341797,0.0000392508239580328
612,-0.00601577758789063,0.0000359316653188456
613,-0.00589990615844727,0.0000304406470456766
614,-0.00670051574707031,0.0000337604412230951
