Wavelength (nm),Absorbance (AU),Std.Dev.
190,0.286377429962158,0.0000661653440026121
191,0.258172512054443,0.00004363255418247
192,0.234076023101807,0.0000579724960367105
193,0.214465141296387,0.0000450390302456302
194,0.198048114776611,0.0000393643442488964
195,0.18428897857666,0.0000371267567120498
196,0.173009395599365,0.0000319151566276404
197,0.163266658782959,0.0000288776968679548
198,0.154650211334229,0.000023809649646705
199,0.147026062011719,0.0000314947243061612
200,0.140130996704102,0.0000422660398492527
201,0.133969306945801,0.0000272225577727067
202,0.128732204437256,0.0000242220838858227
203,0.1240553855896,0.000030517578125
204,0.119972705841064,0.0000245200497815719
205,0.11629581451416,0.0000275561755483613
206,0.112779140472412,0.0000372360668284505
207,0.109538555145264,0.000035084814883804
208,0.106666564941406,0.0000356736662183153
209,0.10391902923584,0.0000351826987184462
210,0.101277828216553,0.0000323310010582939
211,0.0988202095031738,0.0000425047571649699
212,0.0965242385864258,0.0000337781157463548
213,0.0943212509155273,0.0000309861612333298
214,0.0923271179199219,0.000026286662010837
215,0.0902252197265625,0.000028938653534103
216,0.0881428718566895,0.0000291597716216948
217,0.0861172676086426,0.0000290112406036445
218,0.0840997695922852,0.0000359118850398306
219,0.0820078849792481,0.0000306374831807138
220,0.0798978805541992,0.0000288963908015489
221,0.0778279304504395,0.0000236329222064659
222,0.0758566856384277,0.0000288067466097702
223,0.0739068984985352,0.0000334500501771843
224,0.0721640586853027,0.0000222369265113273
225,0.0705409049987793,0.0000217791163430478
226,0.0690913200378418,0.0000190096771291064
227,0.0677785873413086,0.0000184161955526382
228,0.0666165351867676,0.0000248367627012356
229,0.0654935836791992,0.0000322403281200539
230,0.0644168853759766,0.0000316989134703779
231,0.0633902549743652,0.000027581948740501
232,0.0624241828918457,0.0000253358305071232
233,0.061398983001709,0.0000314920169069007
234,0.060450553894043,0.0000228297461119205
235,0.0595149993896484,0.0000334610941438163
236,0.0585556030273438,0.0000464371827085108
237,0.0575714111328125,0.0000313373085034328
238,0.0566987991333008,0.0000258136974801329
239,0.055811882019043,0.000030424303323649
240,0.055020809173584,0.000027260638959437
241,0.0543384552001953,0.0000205731887863203
242,0.053715705871582,0.000023444560961438
243,0.0531115531921387,0.0000233534618902642
244,0.0524110794067383,0.0000280701808070253
245,0.0517611503601074,0.000025799380092371
246,0.051173210144043,0.00003860393648676
247,0.0505342483520508,0.0000260280592050792
248,0.0498671531677246,0.0000259558895115983
249,0.049222469329834,0.0000306003535746581
250,0.0485577583312988,0.0000336955553200386
251,0.0478267669677734,0.0000392783303018495
252,0.0471725463867188,0.0000302147932081953
253,0.0464482307434082,0.0000293574507879613
254,0.0458407402038574,0.0000249190189942435
255,0.0453290939331055,0.0000303213696368536
256,0.0446739196777344,0.0000262709796181737
257,0.0441756248474121,0.0000276704251927153
258,0.0436367988586426,0.0000398287495428688
259,0.0430312156677246,0.0000409705523389624
260,0.0426173210144043,0.0000354891480835892
261,0.0422182083129883,0.0000380888137931013
262,0.0416536331176758,0.0000402842744139349
263,0.0411601066589356,0.0000355619513358766
264,0.0407013893127441,0.0000263185387232722
265,0.0401692390441895,0.0000367976504777589
266,0.0396065711975098,0.0000314323951238162
267,0.0390477180480957,0.0000328395088670225
268,0.0384011268615723,0.0000310228290897581
269,0.0379939079284668,0.0000369194845693072
270,0.0375089645385742,0.0000464420788214147
271,0.0370802879333496,0.0000485531694845499
272,0.0365147590637207,0.0000441608878338808
273,0.0359830856323242,0.0000387655706061859
274,0.0355396270751953,0.000032712905763224
275,0.0351405143737793,0.0000298533003637651
276,0.0345873832702637,0.0000323643890618703
277,0.0339851379394531,0.0000426616055146235
278,0.0334978103637695,0.0000476001961738795
279,0.032874584197998,0.0000373168872663848
280,0.0323553085327148,0.0000381425020459267
281,0.0316596031188965,0.0000411256499618484
282,0.0309634208679199,0.0000372536182334901
283,0.0302724838256836,0.0000357087044274312
284,0.0295515060424805,0.0000270849172438861
285,0.0287799835205078,0.0000275484388888127
286,0.0279102325439453,0.0000401004174062241
287,0.0270800590515137,0.0000357691441289705
288,0.0263309478759766,0.0000244474973690962
289,0.0255637168884277,0.000031985431881668
290,0.0247907638549805,0.0000391137287307128
291,0.0240182876586914,0.00003585564954613
292,0.0232076644897461,0.0000280423225949709
293,0.022486686706543,0.0000255397382803304
294,0.0218048095703125,0.0000256579822966742
295,0.0211572647094727,0.0000252014189864739
296,0.0205326080322266,0.0000296277656220989
297,0.0199275016784668,0.0000450516494020364
298,0.0194063186645508,0.000040999677834732
299,0.018773078918457,0.0000355595536046036
300,0.0183405876159668,0.0000398230403510039
301,0.0178432464599609,0.000043494240764585
302,0.0173540115356445,0.0000289317777613963
303,0.0169744491577148,0.0000358025012437849
304,0.0165500640869141,0.000038753104731138
305,0.0161147117614746,0.0000421083930413544
306,0.0157151222229004,0.0000455872284039197
307,0.0154433250427246,0.0000405374690360301
308,0.0151424407958984,0.0000440319807697137
309,0.0147027969360352,0.0000483149235634078
310,0.0144233703613281,0.0000627887900704433
311,0.0142030715942383,0.0000426042726855338
312,0.0139093399047852,0.0000358944693775946
313,0.0136270523071289,0.0000456993130029991
314,0.0133171081542969,0.0000382897565839476
315,0.0129656791687012,0.0000419216886697041
316,0.0127005577087402,0.0000374529711401934
317,0.012488842010498,0.0000416175320350549
318,0.0122547149658203,0.0000461818695556765
319,0.0119233131408691,0.0000412002205579224
320,0.011634349822998,0.0000503339962513033
321,0.0114002227783203,0.0000387509044545539
322,0.0111241340637207,0.0000258840676170287
323,0.0110306739807129,0.0000455772519887868
324,0.0106563568115234,0.000062139035689146
325,0.0104050636291504,0.000058264935091401
326,0.0102548599243164,0.0000537071917593244
327,0.0101103782653809,0.0000527654304995456
328,0.0098567008972168,0.0000428245166079694
329,0.00979185104370117,0.0000358263087392079
330,0.00944900512695313,0.0000468078277275392
331,0.00908946990966797,0.0000610100053584937
332,0.00895547866821289,0.0000517340848342974
333,0.00877571105957031,0.0000455747575437755
334,0.00851249694824219,0.0000355347675745036
335,0.00829839706420898,0.0000332574689986115
336,0.00808382034301758,0.0000445313317831181
337,0.00782489776611328,0.0000559110630987399
338,0.00760030746459961,0.0000566262947572785
339,0.00739002227783203,0.0000595540785874591
340,0.00720643997192383,0.0000445109033942764
341,0.00693416595458984,0.0000485028012899606
342,0.00665998458862305,0.0000542924702739345
343,0.00646400451660156,0.0000421549399291065
344,0.00621223449707031,0.0000347036239520304
345,0.00602579116821289,0.0000297927841181639
346,0.00572633743286133,0.0000276642615992636
347,0.00554227828979492,0.0000334254004868929
348,0.00521373748779297,0.0000437418504278774
349,0.00507450103759766,0.0000470875184744819
350,0.00495147705078125,0.0000292765006667924
351,0.00461053848266602,0.0000303564998783125
352,0.00439214706420898,0.0000440926140286257
353,0.00404596328735352,0.0000445198419678086
354,0.00385475158691406,0.0000546306403391711
355,0.00362777709960937,0.0000394061989595489
356,0.00342178344726562,0.0000280058117797258
357,0.00322675704956055,0.0000410959221550444
358,0.00312519073486328,0.0000567015323493757
359,0.00288534164428711,0.0000559395227749351
360,0.00284051895141602,0.0000576943404646521
361,0.00252437591552734,0.0000395127997290872
362,0.00231122970581055,0.000044808740676362
363,0.00209760665893555,0.0000521641108509182
364,0.00206279754638672,0.0000412243580141835
365,0.00188112258911133,0.0000464555404711799
366,0.00226831436157227,0.0000433331916508343
367,0.00210285186767578,0.0000628068936922105
368,0.00160360336303711,0.0000668031670501056
369,0.00179624557495117,0.0000823700824039047
370,0.00158405303955078,0.0000642581196896477
371,0.00187921524047852,0.0000565811041801122
372,0.00184345245361328,0.0000614343197136764
373,0.00189828872680664,0.0000603363896626372
374,0.00216245651245117,0.0000840086395085796
375,0.00209856033325195,0.000100947676476553
376,0.00184249877929687,0.000089668210147318
377,0.00236749649047852,0.0000666702930939991
378,0.00267601013183594,0.0000773476318206467
379,0.00186634063720703,0.0000945869937218659
380,0.0018458366394043,0.0000686893815601983
381,0.00169992446899414,0.0000656028118969721
382,0.00217914581298828,0.000058354621498863
383,0.00166606903076172,0.0000775238091770232
384,0.00189971923828125,0.0000654866008625795
385,0.00153255462646484,0.0000539500733952125
386,0.00166559219360352,0.0000814945254972465
387,0.00206089019775391,0.0000902923612865038
388,0.00165128707885742,0.0000947719100121896
389,0.000339984893798828,0.0000691101398230428
390,0.00147199630737305,0.0000771902012239241
391,0.00155830383300781,0.0000847094199207677
392,0.00214815139770508,0.0000957623886396765
393,0.00100326538085937,0.0000735983904041666
394,0.000435352325439453,0.000075210386900193
395,0.000572681427001953,0.0000624092225583893
396,0.000828266143798828,0.0000567816758979958
397,0.00173711776733398,0.0000749833064512378
398,0.00126075744628906,0.0000860872672199362
399,-0.000126838684082031,0.000070615381300008
400,0.000375747680664062,0.0000555970451626075
401,0.0000505447387695313,0.0000726938208582831
402,0.000231266021728516,0.0000632829562013473
403,0.00060272216796875,0.000074645959638897
404,0.000680446624755859,0.0000666071704491967
405,0.000550270080566406,0.0000556389485087524
406,-0.00103187561035156,0.0000766032624360016
407,-0.000491619110107422,0.0000721979328619324
408,0.000649452209472656,0.000067764583295786
409,-0.000493526458740234,0.0000583312383390773
410,-0.000655174255371094,0.0000730401844666657
411,-0.000223636627197266,0.0000722561716085726
412,0.000268936157226562,0.0000623764245062555
413,-0.000629901885986328,0.0000674484432605245
414,-0.00107765197753906,0.0000649374482465255
415,-0.000586032867431641,0.0000545535886800902
416,-0.000905990600585938,0.0000582171109396268
417,-0.000981330871582031,0.0000502367804559782
418,-0.000623226165771484,0.0000333590109421433
419,-0.000799179077148438,0.0000483725386349146
420,-0.00022125244140625,0.0000500633600990859
421,0.000666141510009766,0.0000605902249847814
422,-0.00165081024169922,0.0000623417856204903
423,-0.00146722793579102,0.0000684190706603449
424,-0.00167608261108398,0.0000707617345788729
425,-0.00194072723388672,0.0000686678620705621
426,-0.00143146514892578,0.0000540784634910317
427,-0.000186443328857422,0.0000524098052485598
428,-0.00204181671142578,0.0000445070720275041
429,0.000165462493896484,0.0000373305941124913
430,-0.00171756744384766,0.000053866772310663
431,-0.00314760208129883,0.0000624110441670223
432,-0.00244522094726562,0.0000607242338897793
433,-0.000998497009277344,0.000069734071992853
434,-0.00247907638549805,0.0000553295505690013
435,-0.00273799896240234,0.0000483760638590974
436,-0.00173854827880859,0.0000582493233591741
437,-0.00212001800537109,0.0000442110597130146
438,-0.00182104110717773,0.0000556757156875202
439,-0.00232887268066406,0.000050787074873712
440,-0.00180768966674805,0.0000353117152816269
441,-0.000520706176757813,0.0000379550097377073
442,-0.00339508056640625,0.0000564161032760537
443,-0.00177621841430664,0.0000681993834639783
444,-0.00288820266723633,0.0000731925622390554
445,-0.00248575210571289,0.000059575073536095
446,-0.00236272811889648,0.0000432675531635642
447,-0.0032353401184082,0.0000568906897751881
448,-0.00264644622802734,0.0000386105620658849
449,-0.00249385833740234,0.000051123970886659
450,-0.00318336486816406,0.0000599953245603696
451,-0.00283098220825195,0.0000675595971039455
452,-0.00309848785400391,0.000063077824523212
453,-0.00322198867797852,0.0000588860105402549
454,-0.00280046463012695,0.0000514067169039121
455,-0.00308942794799805,0.0000587584510923132
456,-0.003021240234375,0.0000701680095773548
457,-0.00230741500854492,0.0000510761379236716
458,-0.00285530090332031,0.0000743315566450114
459,-0.00346088409423828,0.0000510048616073384
460,-0.00367164611816406,0.0000480163416869129
461,-0.0034489631652832,0.000033941796800582
462,-0.00344419479370117,0.0000503136643025255
463,-0.00224018096923828,0.000073831270441975
464,-0.00303840637207031,0.0000456308495742891
465,-0.00341081619262695,0.0000450352438091949
466,-0.00437021255493164,0.0000644736033928085
467,-0.00339841842651367,0.0000860463188838312
468,-0.00384140014648437,0.0000725701665329228
469,-0.00396633148193359,0.0000585306686097398
470,-0.00332784652709961,0.0000561575718705646
471,-0.00345325469970703,0.0000509937156834695
472,-0.00300312042236328,0.0000492563783059312
473,-0.00350713729858398,0.0000649164362905487
474,-0.0036005973815918,0.0000682810165050541
475,-0.00307989120483398,0.0000541467437433015
476,-0.0040435791015625,0.0000412340090404223
477,-0.00371456146240234,0.0000628448943228401
478,-0.00341987609863281,0.0000853258758389991
479,-0.00335884094238281,0.0000927445208193857
480,-0.00357961654663086,0.000056287995882459
481,-0.0037541389465332,0.00005689468631118
482,-0.00406408309936523,0.000047570332191911
483,-0.00311374664306641,0.0000481629135006579
484,-0.00465536117553711,0.0000370593286919229
485,0.0124573707580566,0.0000435530123801461
486,-0.0133452415466309,0.0000419257563012615
487,-0.00557470321655273,0.0000532330547409126
488,-0.00572872161865234,0.000040743775038784
489,-0.00380897521972656,0.0000447236651323895
490,-0.00430154800415039,0.0000614139603693845
491,-0.00426816940307617,0.0000648989211305583
492,-0.00408601760864258,0.0000517977737960826
493,-0.00380277633666992,0.0000644189176446984
494,-0.00446796417236328,0.0000773476318206467
495,-0.00367403030395508,0.0000551834724823584
496,-0.00432920455932617,0.0000683193004172223
497,-0.00464534759521484,0.0000561109907581611
498,-0.00378227233886719,0.0000648007487463348
499,-0.00403308868408203,0.0000518153293884511
500,-0.0046839714050293,0.0000438262378411232
501,-0.00415277481079102,0.0000582834685920621
502,-0.00432205200195313,0.0000583818900150704
503,-0.00434780120849609,0.0000652239332418927
504,-0.00469303131103516,0.0000643500534356588
505,-0.0039825439453125,0.0000771548455819805
506,-0.00481986999511719,0.0000653667048957588
507,-0.00467538833618164,0.0000627072590942648
508,-0.00448179244995117,0.0000513967641131178
509,-0.00472068786621094,0.0000608943641560198
510,-0.00451374053955078,0.0000864956843824252
511,-0.00453376770019531,0.0000843031373872236
512,-0.0044093132019043,0.0000540395577383379
513,-0.00457954406738281,0.0000561099776958137
514,-0.00470733642578125,0.0000553993670643695
515,-0.00454235076904297,0.0000563778024493767
516,-0.00478124618530273,0.0000458669263417389
517,-0.00490903854370117,0.0000567025348428536
518,-0.00472259521484375,0.0000614879620354266
519,-0.00490140914916992,0.0000692284791902324
520,-0.00491476058959961,0.0000677813579533927
521,-0.00489711761474609,0.0000529783035748716
522,-0.00492954254150391,0.0000465313423877732
523,-0.00460529327392578,0.000057474209492948
524,-0.00490760803222656,0.0000649286940912334
525,-0.00480365753173828,0.0000591470317967822
526,-0.00485563278198242,0.0000536680168599245
527,-0.00484561920166016,0.0000390722881380745
528,-0.00467586517333984,0.0000350953444188255
529,-0.00504589080810547,0.0000473187306352065
530,-0.00476694107055664,0.0000536341127909286
531,-0.00487089157104492,0.000058354621498863
532,-0.00454282760620117,0.0000552750736206514
533,-0.00448894500732422,0.0000525614292373504
534,-0.00478124618530273,0.0000708291802506529
535,-0.00506830215454102,0.000075137795823776
536,-0.00516796112060547,0.0000705944489203277
537,-0.00459384918212891,0.0000700009291329558
538,-0.00474071502685547,0.0000525971055203402
539,-0.00500011444091797,0.0000395566529294563
540,-0.00497770309448242,0.0000482100996719641
541,-0.00484466552734375,0.0000515491624074054
542,-0.00487232208251953,0.0000468175419183105
543,-0.00516891479492188,0.0000671223463453688
544,-0.00510072708129883,0.0000730028189778581
545,-0.00536394119262695,0.0000446740689461232
546,-0.00513410568237305,0.0000435399588769667
547,-0.00456666946411133,0.0000409982913755451
548,-0.00536870956420898,0.0000293884144888954
549,-0.00537776947021484,0.000039599022117904
550,-0.00535392761230469,0.0000451512167502053
551,-0.00505733489990234,0.0000406487945632582
552,-0.00508785247802734,0.0000390074946140624
553,-0.0051121711730957,0.0000387626378197839
554,-0.00532150268554688,0.0000487855915993855
555,-0.00477123260498047,0.0000430508962967863
556,-0.00534820556640625,0.0000436364623336877
557,-0.00521516799926758,0.0000440926140286257
558,-0.00539302825927734,0.0000412698359498362
559,-0.00516414642333984,0.0000594241269727298
560,-0.00498294830322266,0.0000477337574638392
561,-0.00544881820678711,0.0000578773070682061
562,-0.00522661209106445,0.000047124926398394
563,-0.00507497787475586,0.0000495658406885642
564,-0.00520992279052734,0.0000406949157154893
565,-0.00542545318603516,0.0000394854567216113
566,-0.00515842437744141,0.0000435086144907262
567,-0.00487375259399414,0.0000477682794321771
568,-0.00502920150756836,0.0000498973120128068
569,-0.00454807281494141,0.0000390380847334787
570,-0.00493335723876953,0.000035140666347299
571,-0.00469398498535156,0.0000407395893928482
572,-0.00640153884887695,0.0000486023159343229
573,-0.00409173965454102,0.0000458780787912702
574,-0.00518178939819336,0.0000321962200630089
575,-0.00618505477905273,0.000035192391367159
576,-0.00398826599121094,0.0000384962955765893
577,-0.00450515747070313,0.0000441982005580604
578,-0.00618791580200195,0.000035472326113505
579,-0.00538969039916992,0.0000291670808733211
580,-0.00373029708862305,0.0000335569385914837
581,-0.00316762924194336,0.000032973384305386
582,-0.00708246231079102,0.0000352923928641574
583,-0.00686836242675781,0.0000330121496785564
584,-0.00353097915649414,0.0000320954270355695
585,-0.00468921661376953,0.0000429603552542657
586,-0.00655746459960938,0.0000456308495742891
587,-0.00369596481323242,0.0000301945623433839
588,-0.00632476806640625,0.0000386958568794051
589,-0.00591087341308594,0.0000473019096147198
590,-0.0050806999206543,0.0000428676340020324
591,-0.00574398040771484,0.000033637304476197
592,-0.00295495986938477,0.0000349232357475291
593,-0.00529575347900391,0.000036514644086984
594,-0.00490236282348633,0.0000345994566605982
595,-0.0052490234375,0.0000273319631689482
596,-0.00605249404907227,0.0000499838168387553
597,-0.00454521179199219,0.0000389921905549051
598,-0.00495290756225586,0.0000476634459328221
599,-0.00457048416137695,0.0000494153780459341
600,-0.00508880615234375,0.0000451562522955006
601,-0.00563669204711914,0.0000377296930617149
602,-0.00524091720581055,0.0000344867344470984
603,-0.00539302825927734,0.0000282382626905306
604,-0.00631999969482422,0.0000291967863119575
605,-0.00459766387939453,0.0000384719240524531
606,-0.00631427764892578,0.0000228260109804181
607,-0.00560903549194336,0.0000203973329996098
608,-0.00628519058227539,0.000030796630395103
609,-0.00603961944580078,0.0000378026923665592
610,-0.00538539886474609,0.0000314251605543841
611,-0.00658702850341797,0.0000392508239580328
612,-0.00601577758789063,0.0000359316653188456
613,-0.00589990615844727,0.0000304406470456766
614,-0.00670051574707031,0.0000337604412230951
615,-0.00616645812988281,0.0000254142351214025
616,-0.00718355178833008,0.0000325543960355726
617,-0.00629854202270508,0.0000360540608324355
618,-0.00637054443359375,0.0000391362481748631
619,-0.00607442855834961,0.0000333811554612542
620,-0.0059056282043457,0.0000429272635120115
621,-0.00678157806396484,0.0000340095558186184
622,-0.00582027435302734,0.0000472141029147589
623,-0.00683355331420898,0.0000459325628986425
624,-0.00647735595703125,0.0000521150511193207
625,-0.00697135925292969,0.0000386046727183726
626,-0.00692653656005859,0.0000287929304235511
627,-0.00643491744995117,0.0000405942201892686
628,-0.00707387924194336,0.0000415129128055731
629,-0.00632238388061523,0.0000346692095642774
630,-0.00712490081787109,0.0000311708928102451
631,-0.00691556930541992,0.0000383987166690568
632,-0.00683498382568359,0.0000466472515159439
633,-0.0067901611328125,0.0000263525340000253
634,-0.00689172744750977,0.0000247249377782546
635,-0.0069117546081543,0.0000349614650116947
636,-0.00666427612304688,0.0000363469104291416
637,-0.00718402862548828,0.0000490563245758502
638,-0.00717687606811523,0.0000409282141121397
639,-0.00740432739257813,0.0000408726220947505
640,-0.00696325302124023,0.0000508541855159565
641,-0.00673961639404297,0.0000354394602065205
642,-0.00647068023681641,0.0000483819386619436
643,-0.0064692497253418,0.0000396004575672046
644,-0.00675058364868164,0.0000368794317076952
645,-0.00691986083984375,0.0000392776066974851
646,-0.00702381134033203,0.0000319756559752783
647,-0.00699472427368164,0.000026070611026953
648,-0.00682449340820313,0.0000318955587402366
649,-0.00716924667358398,0.0000478657585399388
650,-0.0072331428527832,0.0000533184120549996
651,-0.00704526901245117,0.0000449619766954899
652,-0.00725078582763672,0.0000503306081635524
653,-0.00677680969238281,0.0000493601318800097
654,-0.00819873809814453,0.0000562667846679688
655,0.00596904754638672,0.0000249315620297433
656,-0.00532770156860352,0.0000380873213724439
657,-0.0242047309875488,0.0000336719294457219
658,-0.00706720352172852,0.000032881025329703
659,-0.00791788101196289,0.0000487342972334913
660,-0.00739383697509766,0.0000419128741137423
661,-0.00736141204833984,0.0000344100045752777
662,-0.00734233856201172,0.0000505503615364793
663,-0.00745201110839844,0.0000471478391654459
664,-0.00732088088989258,0.0000352488786979039
665,-0.0074152946472168,0.0000366234530245255
666,-0.00760507583618164,0.0000408134726076711
667,-0.00749969482421875,0.0000497307095042493
668,-0.00754880905151367,0.0000465875028193546
669,-0.00754070281982422,0.0000282241682236229
670,-0.00763988494873047,0.0000290680064616836
671,-0.00736665725708008,0.0000341895900158755
672,-0.00736856460571289,0.000034751910409598
673,-0.00789928436279297,0.0000446600703200077
674,-0.00749540328979492,0.0000382904988564633
675,-0.00762319564819336,0.0000436794289184756
676,-0.00755167007446289,0.0000328100695882527
677,-0.00743961334228516,0.0000363680171311728
678,-0.00754404067993164,0.000039133343168314
679,-0.00738191604614258,0.0000361107744124511
680,-0.00767993927001953,0.0000460919291905192
681,-0.00746965408325195,0.0000378455231835389
682,-0.00761175155639648,0.0000409525118896177
683,-0.00739240646362305,0.0000321095925121658
684,-0.00730657577514648,0.000036990241083271
685,-0.00734853744506836,0.0000317526647753248
686,-0.00755929946899414,0.0000256729320820795
687,-0.00750255584716797,0.00003409552403355
688,-0.00763082504272461,0.0000238728322052173
689,-0.00737810134887695,0.0000271734431201108
690,-0.0075078010559082,0.0000461338410387253
691,-0.00722789764404297,0.0000369310302069442
692,-0.00754833221435547,0.0000321759100525828
693,-0.00732517242431641,0.000036590844317226
694,-0.00754880905151367,0.0000408190432720808
695,-0.00742101669311523,0.0000406515912741606
696,-0.00747585296630859,0.0000269750366976062
697,-0.00709056854248047,0.0000259186327590216
698,-0.00758600234985352,0.0000366001640552854
699,-0.00742864608764648,0.0000387171512224023
700,-0.00753402709960938,0.0000318973408639279
701,-0.00747823715209961,0.0000244916348480185
702,-0.00728559494018555,0.0000339501694287467
703,-0.00740718841552734,0.0000336051811854612
704,-0.00751304626464844,0.0000393585676923683
705,-0.00752115249633789,0.0000340963576139922
706,-0.00712203979492188,0.0000384024173578279
707,-0.00710105895996094,0.0000361272991027978
708,-0.00765705108642578,0.0000301507607886015
709,-0.00749588012695313,0.0000392971393385266
710,-0.00729513168334961,0.0000368069178512632
711,-0.00746059417724609,0.0000345188607309143
712,-0.00751495361328125,0.0000291007431896218
713,-0.00727128982543945,0.0000406103202574004
714,-0.00727510452270508,0.0000408420142313086
715,-0.00744485855102539,0.0000297474355720897
716,-0.00766897201538086,0.0000276873679998092
717,-0.007537841796875,0.0000390337161841542
718,-0.00732898712158203,0.0000358263087392079
719,-0.00743293762207031,0.00003207062239601
720,-0.00754785537719727,0.0000354891480835892
721,-0.00754499435424805,0.0000356736662183153
722,-0.00753021240234375,0.0000425234758384256
723,-0.00744390487670898,0.0000415430263706557
724,-0.00750494003295898,0.0000422882248073979
725,-0.00746822357177734,0.0000567586462181528
726,-0.00763463973999023,0.000049304823810671
727,-0.00771474838256836,0.0000449986251641059
728,-0.00751686096191406,0.0000407995426190037
729,-0.00741815567016602,0.0000518372655180433
730,-0.00770950317382813,0.0000406879310226285
731,-0.00768613815307617,0.0000257503103090298
732,-0.007965087890625,0.000032301978215103
733,-0.0075531005859375,0.0000497307095042493
734,-0.00754356384277344,0.0000527018323436368
735,-0.00779008865356445,0.0000420448984200494
736,-0.00776529312133789,0.0000494510250590618
737,-0.0078282356262207,0.0000572820173380903
738,-0.00817060470581055,0.0000502152771640807
739,-0.00755596160888672,0.0000439531618134967
740,-0.00796318054199219,0.0000427228531306202
741,-0.00790786743164063,0.0000370792633689825
742,-0.0077366828918457,0.0000379153011723477
743,-0.00784826278686523,0.000035586718432583
744,-0.00790071487426758,0.0000531903247173782
745,-0.0080409049987793,0.0000420131151245157
746,-0.00805521011352539,0.0000431939196397993
747,-0.00784730911254883,0.000045333397903683
748,-0.00799274444580078,0.0000500781185079984
749,-0.00765132904052734,0.0000486140101468389
750,-0.00761270523071289,0.0000510505344529352
751,-0.00788593292236328,0.0000399584132865813
752,-0.00796031951904297,0.0000368061456592615
753,-0.00775384902954102,0.0000394444066711514
754,-0.00792026519775391,0.0000410128468593704
755,-0.00788593292236328,0.000045533579471958
756,-0.00781774520874023,0.0000445887364485205
757,-0.0076909065246582,0.0000488019012276175
758,-0.00799894332885742,0.0000545348299236137
759,-0.00787019729614258,0.0000518657686163897
760,-0.00775289535522461,0.0000376029260053337
761,-0.00802326202392578,0.0000401230914257232
762,-0.0081334114074707,0.0000443497010071283
763,-0.00770378112792969,0.0000487984067661739
764,-0.00756645202636719,0.0000370485901922318
765,-0.00763893127441406,0.0000446893351735694
766,-0.00821542739868164,0.0000563182837593207
767,-0.00806808471679688,0.0000537791144556873
768,-0.00751543045043945,0.0000416059206672342
769,-0.00769567489624023,0.0000473091193558436
770,-0.00781536102294922,0.0000525960247764038
771,-0.00790309906005859,0.0000635429124963667
772,-0.00809335708618164,0.0000629623699629608
773,-0.0078730583190918,0.0000508608917098162
774,-0.00803422927856445,0.0000471635099082028
775,-0.00787544250488281,0.000055888691757827
776,-0.00793981552124023,0.000043519065127877
777,-0.00797271728515625,0.0000313418429792127
778,-0.00780820846557617,0.0000370608625093063
779,-0.00770711898803711,0.0000480684021978485
780,-0.00799655914306641,0.0000573910712782978
781,-0.00777530670166016,0.0000609223619953921
782,-0.00789260864257813,0.0000404314610124234
783,-0.00799655914306641,0.000053652126995221
784,-0.00799036026000977,0.0000411360150727728
785,-0.00802278518676758,0.0000465960430380888
786,-0.00792551040649414,0.0000369310302069442
787,-0.00780534744262695,0.0000370363138086144
788,-0.00788974761962891,0.0000489379905946654
789,-0.00811004638671875,0.0000533056171713082
790,-0.00812292098999023,0.0000399776132940734
791,-0.00806522369384766,0.0000351730033987237
792,-0.00809478759765625,0.0000344133083057423
793,-0.00790262222290039,0.0000423627616764367
794,-0.00778722763061523,0.0000412601933037442
795,-0.00815486907958984,0.0000413021912253194
796,-0.00841712951660156,0.0000329293950474158
797,-0.0079951286315918,0.0000467567951145785
798,-0.00814294815063477,0.0000534685225921334
799,-0.00815200805664063,0.0000465203465471688
800,-0.00819492340087891,0.0000485473154026752
801,-0.00807046890258789,0.0000354049583069736
802,-0.00821685791015625,0.000044688063187141
803,-0.00809812545776367,0.0000446931509156469
804,-0.00834512710571289,0.0000535927632073483
805,-0.00817155838012695,0.0000511739807609045
806,-0.00816249847412109,0.0000419447333661912
807,-0.00839614868164063,0.0000359846228498953
808,-0.00838565826416016,0.0000472008576069388
809,-0.00839328765869141,0.0000456968252209127
810,-0.00845623016357422,0.0000303939273805874
811,-0.00836896896362305,0.0000413613289684323
812,-0.00849723815917969,0.0000341296841370628
813,-0.00825643539428711,0.0000395257450779925
814,-0.00835275650024414,0.0000476896759123076
815,-0.00850296020507813,0.0000367729260636105
816,-0.00851249694824219,0.0000439221123046024
817,-0.00841093063354492,0.0000488042307295749
818,-0.0085291862487793,0.0000439415208187419
819,-0.00847578048706055,0.0000367009761903646
820,-0.00831031799316406,0.0000446116776321471
821,-0.00849723815917969,0.0000407109759613372
822,-0.00850963592529297,0.000045661982039925
823,-0.00859308242797852,0.00004433175344709
824,-0.0085601806640625,0.0000470077766416904
825,-0.00856924057006836,0.0000376452291216139
826,-0.00863409042358398,0.0000427441360776434
827,-0.00859546661376953,0.0000396757457209358
828,-0.00865745544433594,0.0000411601901808959
829,-0.00858068466186523,0.0000465398929121268
830,-0.00872468948364258,0.0000473979493250167
831,-0.00882053375244141,0.0000556154456414044
832,-0.00864362716674805,0.0000410364019347632
833,-0.00868701934814453,0.0000359656619513189
834,-0.00862360000610352,0.0000462839181918343
835,-0.00873470306396484,0.0000490227096619234
836,-0.00878381729125977,0.0000430158920720822
837,-0.00876712799072266,0.0000444942984222049
838,-0.00875043869018555,0.0000491246425362744
839,-0.00871610641479492,0.0000571439151605661
840,-0.00867652893066406,0.0000407932725722043
841,-0.00870800018310547,0.0000446435208299889
842,-0.00868892669677734,0.0000538044759824239
843,-0.00870275497436523,0.000049997461813805
844,-0.00860309600830078,0.0000448632564023555
845,-0.00854873657226563,0.0000520419209392011
846,-0.00856447219848633,0.000047552404800209
847,-0.00847625732421875,0.0000616356988222371
848,-0.00859355926513672,0.0000526683855876315
849,-0.0085296630859375,0.0000388922019932801
850,-0.00848865509033203,0.0000439803121520934
851,-0.00847625732421875,0.0000587245820372312
852,-0.00825357437133789,0.0000432202317277901
853,-0.00830173492431641,0.0000594872271816458
854,-0.00838565826416016,0.0000648375808098198
855,-0.00858545303344727,0.0000553203035478673
856,-0.0084381103515625,0.0000559994440303925
857,-0.00839662551879883,0.000047774228974408
858,-0.00845193862915039,0.0000487751039585006
859,-0.00838518142700195,0.0000563556163890616
860,-0.00839376449584961,0.0000537124834732248
861,-0.0084080696105957,0.0000579577863117682
862,-0.00825834274291992,0.0000560532169827237
863,-0.00824117660522461,0.0000455535492462734
864,-0.00834274291992188,0.0000529986858288766
865,-0.00835227966308594,0.0000436077944245002
866,-0.00829172134399414,0.0000474638638997242
867,-0.00827598571777344,0.0000410717092183091
868,-0.0082240104675293,0.0000578812354810979
869,-0.00826454162597656,0.0000443625162473782
870,-0.00821876525878906,0.000032741564353219
871,-0.00824642181396484,0.0000566854900425475
872,-0.00827503204345703,0.0000438443923328264
873,-0.00813007354736328,0.000045863208255914
874,-0.00813770294189453,0.0000426449469411539
875,-0.00818490982055664,0.0000368354775753958
876,-0.00823879241943359,0.0000509357175628753
877,-0.00831842422485352,0.0000711542664293186
878,-0.00807762145996094,0.0000584247148267882
879,-0.00813865661621094,0.000040174768638211
880,-0.00815248489379883,0.0000594604655742329
881,-0.00826883316040039,0.0000662632103544965
882,-0.00822734832763672,0.000051404505339158
883,-0.00819540023803711,0.0000602505968044211
884,-0.00822210311889648,0.000055992338081643
885,-0.00813436508178711,0.0000416223122450068
886,-0.00820779800415039,0.0000389878168631801
887,-0.00829267501831055,0.0000549760364234196
888,-0.00824642181396484,0.0000684772028390893
889,-0.00814008712768555,0.0000583478023785945
890,-0.00810718536376953,0.0000386686712098251
891,-0.00812292098999023,0.0000506256463622551
892,-0.00815677642822266,0.0000622724500456207
893,-0.00815439224243164,0.0000374787636331487
894,-0.00819635391235352,0.0000507333224421325
895,-0.00806760787963867,0.0000647340469800766
896,-0.00816202163696289,0.0000510516479143235
897,-0.00824975967407227,0.0000545796318127881
898,-0.0081028938293457,0.0000726860008708619
899,-0.00821924209594727,0.0000762134365638554
900,-0.00820636749267578,0.0000620786309859306
901,-0.0082097053527832,0.0000598568349547212
902,-0.00828933715820313,0.0000460018129789486
903,-0.00827503204345703,0.0000429213042888951
904,-0.00825786590576172,0.0000531732230933634
905,-0.00831747055053711,0.0000762879846151736
906,-0.00833606719970703,0.0000579097085048114
907,-0.00829267501831055,0.0000454123247177472
908,-0.00838661193847656,0.0000426409479151281
909,-0.00829315185546875,0.0000403962977097664
910,-0.00832319259643555,0.0000637429806345025
911,-0.00848054885864258,0.0000414395907772387
912,-0.0084233283996582,0.0000386363174060841
913,-0.00850391387939453,0.0000494349295909669
914,-0.00858640670776367,0.0000445606811847142
915,-0.00858545303344727,0.0000427906556194731
916,-0.00850486755371094,0.0000355067625518557
917,-0.0086212158203125,0.0000420921907540166
918,-0.00871610641479492,0.0000552267189175268
919,-0.00869369506835938,0.0000812206405148007
920,-0.00876808166503906,0.000071819021348315
921,-0.00874567031860352,0.000068054201891604
922,-0.00885009765625,0.0000630345538444628
923,-0.00895452499389648,0.0000459548332334776
924,-0.00905799865722656,0.0000572988846886443
925,-0.00920295715332031,0.0000640774049970337
926,-0.00932025909423828,0.0000752662947385357
927,-0.00922584533691406,0.0000738512853839174
928,-0.00940704345703125,0.0000681326717357321
929,-0.00938987731933594,0.0000617830823392697
930,-0.00954532623291016,0.0000607523101341197
931,-0.00957345962524414,0.0000700317797811145
932,-0.00971364974975586,0.0000641199719226742
933,-0.00972557067871094,0.0000654362365661943
934,-0.00993728637695313,0.0000862679996924261
935,-0.0100502967834473,0.0000865482429850649
936,-0.0101442337036133,0.0000531432820089274
937,-0.0102062225341797,0.0000588029350398681
938,-0.0104274749755859,0.0000599991142972542
939,-0.0104618072509766,0.0000508999935642227
940,-0.0107297897338867,0.0000585248412802363
941,-0.0107264518737793,0.0000775223426867382
942,-0.0109410285949707,0.0000791362947245633
943,-0.0109739303588867,0.0000771872555389749
944,-0.0108952522277832,0.0000628304206021685
945,-0.011138916015625,0.0000736663254941063
946,-0.0113067626953125,0.0000813115719595821
947,-0.0116243362426758,0.0000876109612754741
948,-0.0118575096130371,0.0000934649485664491
949,-0.0120029449462891,0.0000879011503844626
950,-0.0121936798095703,0.0000757195787097138
951,-0.012242317199707,0.0000562233272125506
952,-0.0124773979187012,0.0000368709534115282
953,-0.0127582550048828,0.0000575107917684583
954,-0.0129895210266113,0.0000973985856511404
955,-0.0129189491271973,0.000100618289951605
956,-0.0130467414855957,0.0000788614276482698
957,-0.0137357711791992,0.0000739605021874059
958,-0.0138888359069824,0.0000800277096773956
959,-0.014127254486084,0.000104173368869182
960,-0.0139083862304687,0.0000871764746248355
961,-0.0144591331481934,0.0000817355083906196
962,-0.0144047737121582,0.000114046848838776
963,-0.0142288208007812,0.000105187726443814
964,-0.0142002105712891,0.0000928596751421689
965,-0.0142745971679687,0.000104528534858904
966,-0.0139379501342773,0.000131693410875822
967,-0.0140175819396973,0.000138893096010225
968,-0.0138320922851562,0.000152313462480583
969,-0.0138325691223145,0.000147921004374812
970,-0.0137362480163574,0.000119631971592458
971,-0.0134854316711426,0.000137550784370654
972,-0.0135455131530762,0.000162500058988528
973,-0.0132465362548828,0.000173830526581794
974,-0.0133152008056641,0.000157347592201669
975,-0.0131826400756836,0.000131783160268503
976,-0.0130805969238281,0.0000909972225526231
977,-0.0130186080932617,0.000110235015808898
978,-0.0127429962158203,0.000157743036441567
979,-0.0129880905151367,0.000123422553692568
980,-0.012763500213623,0.000166549328756896
981,-0.0128498077392578,0.000161973097048065
982,-0.0124993324279785,0.000162916493584411
983,-0.012141227722168,0.000173657782207959
984,-0.0122256278991699,0.000214693249744495
985,-0.0120458602905273,0.00011372141360298
986,-0.011624813079834,0.000136904590186511
987,-0.0115852355957031,0.000143732989083133
988,-0.011716365814209,0.000118403572921085
989,-0.0115056037902832,0.000143324273360249
990,-0.0117287635803223,0.00018753708997838
991,-0.0115337371826172,0.000156286242871258
992,-0.011258602142334,0.000151231819619695
993,-0.0113744735717773,0.000143764623944105
994,-0.0111393928527832,0.000204971213231758
995,-0.0109477043151855,0.000227154732309026
996,-0.0107831954956055,0.000193771977509633
997,-0.0110635757446289,0.000205325880994049
998,-0.0106873512268066,0.000219887601596025
999,-0.0107951164245605,0.00020590091313164
1000,-0.0105834007263184,0.00025466497245209
1001,-0.0104923248291016,0.000277242161721903
1002,-0.0103001594543457,0.000273277201668889
1003,-0.0106568336486816,0.000203568702387134
1004,-0.0106582641601562,0.000229056609500526
1005,-0.0105204582214355,0.000258352466939473
1006,-0.0106606483459473,0.000184643760768297
1007,-0.0104694366455078,0.000235219473444811
1008,-0.0104484558105469,0.000239750005530863
1009,-0.0103111267089844,0.000181022358024855
1010,-0.0104122161865234,0.000250204594906717
1011,-0.0108866691589355,0.000309543350471596
1012,-0.0102906227111816,0.000278191881914735
1013,-0.010373592376709,0.000214913421951344
1014,-0.0111427307128906,0.000173322272081691
1015,-0.0109233856201172,0.000219891737737133
1016,-0.0107264518737793,0.000282873370719094
1017,-0.0113124847412109,0.000262709147060655
1018,-0.0106115341186523,0.000311371378275194
1019,-0.011347770690918,0.000285070466012905
1020,-0.0112771987915039,0.000284923668866333
1021,-0.0115108489990234,0.000270910657697825
1022,-0.0109186172485352,0.000264510129140621
1023,-0.0111560821533203,0.000269010547062134
1024,-0.0122380256652832,0.000262549847527615
1025,-0.0118837356567383,0.000299563053854328
1026,-0.0120086669921875,0.000295971099426889
1027,-0.0117325782775879,0.000276933622430178
1028,-0.0123400688171387,0.000277025563686097
1029,-0.0120368003845215,0.000355494174074276
1030,-0.0126795768737793,0.000464892509050968
1031,-0.0123820304870605,0.000407780253708475
1032,-0.0128064155578613,0.00027725528343721
1033,-0.013343334197998,0.000285102368434305
1034,-0.0133719444274902,0.000427688641912047
1035,-0.0145220756530762,0.000310540725539159
1036,-0.0142645835876465,0.000307260781784524
1037,-0.0137948989868164,0.000447491793732082
1038,-0.0136251449584961,0.000455125518201504
1039,-0.0144171714782715,0.000499346640559508
1040,-0.0146512985229492,0.000477104112285493
1041,-0.0146641731262207,0.000368656496315109
1042,-0.0151710510253906,0.000362957970793321
1043,-0.0151958465576172,0.00057490664510153
1044,-0.0155820846557617,0.00050967267804109
1045,-0.0162858963012695,0.000472329770781064
1046,-0.016664981842041,0.000416361580979242
1047,-0.0165896415710449,0.000496658348400635
1048,-0.0167622566223145,0.000411474827519313
1049,-0.0159869194030762,0.000395442639385322
1050,-0.0162830352783203,0.000489694814193756
1051,-0.0174822807312012,0.000682670958151639
1052,-0.0168709754943848,0.000549568012683375
1053,-0.0170741081237793,0.000645202789003496
1054,-0.0176796913146973,0.000613941127670364
1055,-0.0174322128295898,0.000712337900166173
1056,-0.0187020301818848,0.00075299457166575
1057,-0.0186777114868164,0.000824663086528369
1058,-0.01959228515625,0.000850001524168289
1059,-0.0197248458862305,0.000823744989119052
1060,-0.0205650329589844,0.00087067070233616
1061,-0.02044677734375,0.000831778971612936
1062,-0.0199756622314453,0.000588082321888158
1063,-0.0195913314819336,0.001004099046251
1064,-0.0199055671691895,0.00080163119730003
1065,-0.0173959732055664,0.000881533537096149
1066,-0.0168700218200684,0.00129648086148551
1067,-0.0179781913757324,0.000821144045841901
1068,-0.0185942649841309,0.000805705242838499
1069,-0.0190949440002441,0.000924999195457766
1070,-0.0170626640319824,0.00102945950976787
1071,-0.0187854766845703,0.000941449973567033
1072,-0.0174379348754883,0.00116719762837306
1073,-0.0166678428649902,0.000952559773531082
1074,-0.0182900428771973,0.000858315361828798
1075,-0.0192809104919434,0.000835688647547507
1076,-0.0198259353637695,0.00114783727277708
1077,-0.0182929039001465,0.00145867160013174
1078,-0.0187292098999023,0.00125623489152544
1079,-0.0185742378234863,0.00104313662245957
1080,-0.0168280601501465,0.00140318649439729
1081,-0.0203619003295898,0.00144137012364052
1082,-0.0191636085510254,0.00159937296041394
1083,-0.0202255249023437,0.0013351658410609
1084,-0.0193915367126465,0.00128096602654038
1085,-0.0194306373596191,0.00136352883989927
1086,-0.0205488204956055,0.00139865759497449
1087,-0.0198712348937988,0.00166534147005444
1088,-0.0211954116821289,0.00178501746725437
1089,-0.0215506553649902,0.00188126080033063
1090,-0.0212717056274414,0.00161570330712269
1091,-0.0208792686462402,0.000993638940669212
1092,-0.0227737426757812,0.00160416978184492
1093,-0.0206770896911621,0.00145751390823481
1094,-0.0232691764831543,0.00165742340672207
1095,-0.0231661796569824,0.00221993094567777
1096,-0.0255298614501953,0.00255424107433599
1097,-0.0256648063659668,0.00235929697109818
1098,-0.0244488716125488,0.0018183265810098
1099,-0.024449348449707,0.00179736617880093
1100,-0.027134895324707,0.00171879947114319
