Wavelength (nm),Absorbance (AU),Std.Dev.
190,0.340571880340576,0.0000616283203941479
191,0.317021369934082,0.0000555172392817829
192,0.295680522918701,0.0000553552286338944
193,0.277791500091553,0.0000614047038904604
194,0.261940002441406,0.0000627706812274311
195,0.24813175201416,0.0000553223585750249
196,0.236120700836182,0.0000391318905841681
197,0.225322723388672,0.0000291875370400952
198,0.215428352355957,0.0000331890308789627
199,0.20637845993042,0.0000424585937797246
200,0.198064804077148,0.0000360800656226034
201,0.190372467041016,0.0000275489547337114
202,0.183587074279785,0.0000234063425374506
203,0.177432537078857,0.0000338772582538746
204,0.171901702880859,0.0000373427737520038
205,0.16682767868042,0.0000329466527369017
206,0.162064552307129,0.0000350296857386455
207,0.157637119293213,0.0000254823624367216
208,0.153578281402588,0.0000230305436624974
209,0.149857044219971,0.000030849189917527
210,0.146257877349854,0.0000274849161350496
211,0.142924785614014,0.0000294598934004659
212,0.139817714691162,0.0000358952611819156
213,0.136775016784668,0.0000297206713818434
214,0.134008884429932,0.0000325412976071636
215,0.131200790405273,0.0000323054975241743
216,0.128433704376221,0.0000438599473447867
217,0.125723361968994,0.000030839975427666
218,0.123081207275391,0.0000255758800931805
219,0.120447635650635,0.000029627285971695
220,0.117873668670654,0.0000306967971367635
221,0.115276336669922,0.0000221415009871743
222,0.112804412841797,0.0000249560597600752
223,0.110381603240967,0.0000228738988566512
224,0.108176231384277,0.0000284018477753425
225,0.106027603149414,0.0000335213469902457
226,0.104183673858643,0.0000272507325405684
227,0.102442741394043,0.000030179498014492
228,0.100829601287842,0.0000347216369230899
229,0.0993251800537109,0.0000321210973620536
230,0.0978021621704102,0.0000393173851612703
231,0.0963811874389648,0.0000251568321512627
232,0.0949544906616211,0.0000267305401195029
233,0.0935297012329102,0.0000329595900740422
234,0.0921707153320313,0.0000229928731809434
235,0.0908331871032715,0.0000322076939688467
236,0.0894036293029785,0.0000467215257787323
237,0.0880379676818848,0.0000349988404526715
238,0.086763858795166,0.0000351867376465517
239,0.0855016708374023,0.0000293816439676049
240,0.0843720436096191,0.000027026089444312
241,0.0832343101501465,0.0000311471769137656
242,0.0822300910949707,0.0000272063701859695
243,0.0812888145446777,0.0000261701725661954
244,0.0802497863769531,0.0000305957092057005
245,0.0793042182922363,0.0000273948031113534
246,0.0783991813659668,0.000033124741723826
247,0.0774416923522949,0.0000301550024293872
248,0.0765199661254883,0.0000315118657663975
249,0.0756144523620606,0.0000358040889026511
250,0.0746378898620606,0.0000313654116858683
251,0.0737090110778809,0.0000381812299448863
252,0.0728254318237305,0.0000304186977403082
253,0.0718655586242676,0.0000348931109042981
254,0.0711088180541992,0.0000387978166248187
255,0.0703315734863281,0.0000312628492606278
256,0.0695281028747559,0.0000314631234854547
257,0.0688834190368652,0.0000329863111583212
258,0.0681462287902832,0.0000367597844547425
259,0.0674490928649902,0.0000246056752454889
260,0.0668268203735352,0.0000396728802185689
261,0.0663027763366699,0.0000381253598499702
262,0.0656929016113281,0.0000331753263131347
263,0.0649552345275879,0.0000329268056138489
264,0.064335823059082,0.000027772438685184
265,0.0637493133544922,0.0000388731970256592
266,0.0629973411560059,0.0000414059700557882
267,0.0623235702514648,0.0000494464268885131
268,0.0616474151611328,0.0000375196917376451
269,0.0610976219177246,0.0000401415046360662
270,0.0604853630065918,0.0000480648544088189
271,0.0598578453063965,0.0000400131445356838
272,0.0592584609985352,0.0000392508239580328
273,0.0587158203125,0.0000421576367233983
274,0.0581293106079102,0.0000487424613115334
275,0.0574440956115723,0.0000465508841356609
276,0.0568222999572754,0.0000425228074562617
277,0.0562539100646973,0.0000374248826415035
278,0.0555429458618164,0.0000419548961200452
279,0.0548520088195801,0.0000472670470296717
280,0.0541491508483887,0.000036157967777498
281,0.053316593170166,0.0000408434059954374
282,0.0525026321411133,0.0000405101160515682
283,0.051689624786377,0.0000347723505473565
284,0.0508785247802734,0.00002233512578703
285,0.0499339103698731,0.0000240117220853727
286,0.0490131378173828,0.0000307245611363521
287,0.0479364395141602,0.0000337318056933926
288,0.0470380783081055,0.0000279127985092084
289,0.0461134910583496,0.0000369794825211827
290,0.045170783996582,0.0000430838930796613
291,0.0442357063293457,0.0000364265826899511
292,0.0433335304260254,0.0000288294302557873
293,0.0424022674560547,0.000027686341458163
294,0.0415010452270508,0.0000236965759808562
295,0.0407156944274902,0.0000255046596474773
296,0.0398721694946289,0.0000368084621866679
297,0.0390152931213379,0.0000309200495119256
298,0.0383906364440918,0.0000367566916286502
299,0.0376110076904297,0.0000416414275973933
300,0.0369911193847656,0.0000446740689461232
301,0.0363326072692871,0.0000389331042602861
302,0.035637378692627,0.0000264553320660259
303,0.0350933074951172,0.0000321202125199019
304,0.0344581604003906,0.0000316729009731591
305,0.033848762512207,0.0000301955036144019
306,0.0333600044250488,0.0000368524485403945
307,0.0327868461608887,0.0000353463081967792
308,0.0322871208190918,0.0000370915255373534
309,0.0318183898925781,0.0000391224474725971
310,0.0313477516174316,0.0000525852161153957
311,0.0308818817138672,0.0000414313596537536
312,0.0303845405578613,0.0000460215795769083
313,0.0299386978149414,0.0000482289612140285
314,0.0294208526611328,0.0000481085921882636
315,0.0289921760559082,0.0000444559555847422
316,0.0284428596496582,0.0000530340679679843
317,0.0280380249023437,0.0000517988711949195
318,0.0276479721069336,0.0000599261197638426
319,0.027193546295166,0.0000473067162308906
320,0.0267548561096191,0.0000418348183132832
321,0.0263328552246094,0.0000462027894385045
322,0.0259027481079102,0.0000326119666209463
323,0.0256199836730957,0.0000482431025312109
324,0.0251374244689941,0.0000541624885005165
325,0.0247349739074707,0.0000576460429396749
326,0.0243082046508789,0.000046709357763895
327,0.0240387916564941,0.0000431623239613453
328,0.023643970489502,0.000036805373451059
329,0.0233378410339355,0.0000346158817536956
330,0.0228724479675293,0.0000332061536324512
331,0.0224447250366211,0.0000529536198234234
332,0.0220847129821777,0.0000486619270364783
333,0.0217418670654297,0.000045492364127228
334,0.0213866233825684,0.0000417715882550731
335,0.0209331512451172,0.0000376255943039897
336,0.0205678939819336,0.0000363680171311728
337,0.0201735496520996,0.0000513989760109568
338,0.019831657409668,0.0000522631798027976
339,0.0194721221923828,0.0000567416182733288
340,0.0190730094909668,0.0000443881356282659
341,0.0185737609863281,0.0000521237762242067
342,0.0181875228881836,0.0000469157848184191
343,0.0179219245910645,0.0000429610168291158
344,0.0174999237060547,0.0000408113834124811
345,0.0171875953674316,0.0000362858665470855
346,0.0167131423950195,0.0000322412096656995
347,0.0163798332214355,0.0000313726600334573
348,0.015838623046875,0.0000328092033272239
349,0.015596866607666,0.000041985369621959
350,0.0153021812438965,0.0000314441477490629
351,0.0148406028747559,0.0000286380314847885
352,0.014521598815918,0.0000467081407880662
353,0.0140867233276367,0.0000509178586965463
354,0.0136861801147461,0.0000518526152871407
355,0.0133147239685059,0.0000441428635064435
356,0.0129990577697754,0.0000351996591021708
357,0.0127701759338379,0.0000459139960346726
358,0.0125622749328613,0.0000475069584634664
359,0.012171745300293,0.0000532373258569576
360,0.0118279457092285,0.0000462544332911246
361,0.0112743377685547,0.0000373206952286044
362,0.0109920501708984,0.000049832334847499
363,0.0106525421142578,0.0000419650564127667
364,0.0103917121887207,0.0000468539521962065
365,0.0102400779724121,0.0000497935361655579
366,0.0104665756225586,0.0000517428741793888
367,0.0101737976074219,0.000063291937985488
368,0.00963163375854492,0.0000632703795614784
369,0.00964975357055664,0.0000841060189089603
370,0.00916337966918945,0.0000892513828771196
371,0.00948238372802734,0.0000620951108233678
372,0.00931072235107422,0.0000482643067381674
373,0.00923633575439453,0.0000586364309385798
374,0.00936126708984375,0.0000672915057525983
375,0.00918912887573242,0.0000907745669120086
376,0.00891017913818359,0.0000808826025165652
377,0.00923776626586914,0.0000651262507881273
378,0.00947284698486328,0.0000657395729309943
379,0.00853443145751953,0.0000756354524951872
380,0.00837087631225586,0.0000613898906211077
381,0.00821590423583984,0.0000716605502343193
382,0.0084228515625,0.0000806404806389225
383,0.00783777236938477,0.0000954436950927491
384,0.00801324844360352,0.0000591479928417465
385,0.00760650634765625,0.0000449392143376671
386,0.00762844085693359,0.0000599299138769721
387,0.00789260864257813,0.0000767530100846781
388,0.00745534896850586,0.0000702878027827769
389,0.00601339340209961,0.000052781587304364
390,0.00705575942993164,0.0000800958691358724
391,0.00703811645507813,0.0000684257168375095
392,0.00745487213134766,0.0000864457241112437
393,0.00620174407958984,0.0000706105513016234
394,0.00567007064819336,0.0000638659249034737
395,0.00584316253662109,0.0000714762835738819
396,0.00583410263061523,0.000053501469140154
397,0.00677776336669922,0.0000546712049486657
398,0.00613737106323242,0.0000601230961627602
399,0.00470256805419922,0.0000715271631700025
400,0.00530529022216797,0.0000644418560277029
401,0.00490045547485352,0.0000952648564878002
402,0.00482845306396484,0.0000718918007598927
403,0.00523185729980469,0.000055739999893201
404,0.00519227981567383,0.0000426209471567074
405,0.00500202178955078,0.0000514122453995891
406,0.00331783294677734,0.0000560927528365603
407,0.00387144088745117,0.0000481546511669205
408,0.00490140914916992,0.0000701777301577958
409,0.00382661819458008,0.0000617389042268353
410,0.00357198715209961,0.0000669646446051304
411,0.00402355194091797,0.0000765854511753611
412,0.00422430038452148,0.000065298840231561
413,0.00333166122436523,0.0000666054636015162
414,0.00288200378417969,0.0000480542094701543
415,0.00330114364624023,0.0000583818900150704
416,0.00291681289672852,0.0000592986837183557
417,0.00283956527709961,0.0000499337533629356
418,0.00314188003540039,0.0000426982314987717
419,0.0028996467590332,0.0000497089872948477
420,0.00330018997192383,0.0000614361702286011
421,0.00418806076049805,0.0000573207056567906
422,0.00186443328857422,0.0000458024367962773
423,0.00197315216064453,0.000071053536784185
424,0.00164508819580078,0.0000669544575442051
425,0.00139236450195312,0.0000719708253410524
426,0.00184774398803711,0.000068910806203613
427,0.00302886962890625,0.0000527934324853304
428,0.00114822387695312,0.0000402242597750914
429,0.00323295593261719,0.0000362411925327773
430,0.00136184692382812,0.0000489379905946654
431,-0.0000529289245605469,0.0000625765885813804
432,0.000485420227050781,0.0000594107334641057
433,0.00189399719238281,0.0000688018353610763
434,0.000409603118896484,0.0000537061333539766
435,0.0000300407409667969,0.0000536192730195212
436,0.000984668731689453,0.0000555336190687612
437,0.000591278076171875,0.0000561899533475934
438,0.000942230224609375,0.0000424746563000141
439,0.000335693359375,0.0000429451362198202
440,0.000893115997314453,0.0000460808284969394
441,0.00195789337158203,0.00005831369481598
442,-0.000887870788574219,0.0000517439727425502
443,0.000715732574462891,0.0000493923663197883
444,-0.000487804412841797,0.0000642475034845436
445,-0.0000457763671875,0.0000698546093589192
446,0.0000181198120117187,0.0000554803670798306
447,-0.000969886779785156,0.0000482902103468787
448,-0.000372886657714844,0.0000379242954320336
449,-0.000264644622802734,0.0000401152986770568
450,-0.00108766555786133,0.000059161445832023
451,-0.000686168670654297,0.0000447998597446176
452,-0.000986576080322266,0.0000438093733625159
453,-0.0011138916015625,0.0000384637967794425
454,-0.000762462615966797,0.0000410931556843475
455,-0.00107526779174805,0.0000553264684003463
456,-0.00110673904418945,0.0000601760181061269
457,-0.000386238098144531,0.0000594289096371431
458,-0.00100803375244141,0.0000749696597516706
459,-0.00164985656738281,0.0000585141563355562
460,-0.00182676315307617,0.0000627018199264497
461,-0.00165462493896484,0.0000649427001732798
462,-0.00164699554443359,0.0000545098082063417
463,-0.000512599945068359,0.0000468660826694703
464,-0.00136661529541016,0.0000334228494813443
465,-0.00179195404052734,0.0000419955225419976
466,-0.00273418426513672,0.0000532373258569576
467,-0.00188207626342773,0.0000712021828412426
468,-0.00224399566650391,0.0000602458793702965
469,-0.00233697891235352,0.0000453196029360222
470,-0.00189638137817383,0.0000500826586819431
471,-0.0018162727355957,0.0000627000067656574
472,-0.00151157379150391,0.0000683558997479985
473,-0.00212717056274414,0.0000680040674139415
474,-0.00220060348510742,0.0000507187546882512
475,-0.00167512893676758,0.0000565821088072761
476,-0.00261306762695312,0.0000571001297635848
477,-0.00239372253417969,0.0000635912007887717
478,-0.00216293334960937,0.0000813059791149244
479,-0.00213050842285156,0.0000878856288297842
480,-0.00239896774291992,0.0000472357690434319
481,-0.00255584716796875,0.0000510772508269155
482,-0.00274133682250977,0.0000642828840167062
483,-0.00190877914428711,0.0000641430172126732
484,-0.00339794158935547,0.0000587429705187286
485,0.0132923126220703,0.0000489205643965576
486,-0.011932373046875,0.0000785074405406245
487,-0.00432777404785156,0.0000638730448505308
488,-0.00466680526733398,0.0000539585017772972
489,-0.00265884399414062,0.0000517966763739954
490,-0.00323009490966797,0.0000428848688213289
491,-0.00314521789550781,0.0000570523255512656
492,-0.0030055046081543,0.0000616486089464606
493,-0.00275611877441406,0.0000624765867052127
494,-0.00339984893798828,0.0000540174636294874
495,-0.00267124176025391,0.0000668439982057847
496,-0.00326013565063477,0.0000738066292162767
497,-0.00369024276733398,0.0000665046820511289
498,-0.00277042388916016,0.0000693515346380359
499,-0.00303936004638672,0.0000764472732013209
500,-0.00368452072143555,0.0000717033719508529
501,-0.00321531295776367,0.0000813199605053456
502,-0.00339365005493164,0.0000763832999540694
503,-0.00343513488769531,0.0000597037445217932
504,-0.00383424758911133,0.0000527654304995456
505,-0.00317049026489258,0.0000735597629699691
506,-0.00388050079345703,0.0000560876856947658
507,-0.00389194488525391,0.000046745852306351
508,-0.003662109375,0.0000524271558984036
509,-0.00385093688964844,0.0000688100967695139
510,-0.00371217727661133,0.0000778603681899043
511,-0.00374126434326172,0.0000736848423755452
512,-0.00363588333129883,0.0000527007537473524
513,-0.00383424758911133,0.0000554639715663169
514,-0.00391817092895508,0.0000623144255306868
515,-0.00389337539672852,0.0000754096520535351
516,-0.00387096405029297,0.0000554219359239879
517,-0.00420188903808594,0.0000572830096726682
518,-0.00405168533325195,0.0000784784731421989
519,-0.00422382354736328,0.0000609540773335151
520,-0.0042424201965332,0.0000548352365810436
521,-0.00421428680419922,0.0000531422123724885
522,-0.00418567657470703,0.0000449493323642138
523,-0.00393295288085937,0.0000494797539437597
524,-0.00420951843261719,0.0000502639293598051
525,-0.00423049926757813,0.0000495245377263245
526,-0.00423526763916016,0.0000513591472750175
527,-0.00435304641723633,0.0000535110304675059
528,-0.00404453277587891,0.0000508083361678449
529,-0.00448417663574219,0.0000557940228921816
530,-0.00426387786865234,0.0000597446704229388
531,-0.00434732437133789,0.0000575927701831217
532,-0.00407075881958008,0.0000591768169331449
533,-0.00398111343383789,0.0000555551102101907
534,-0.00424766540527344,0.0000637233589019026
535,-0.00464057922363281,0.0000718807303856326
536,-0.00472879409790039,0.0000665747328602595
537,-0.00407838821411133,0.0000543217779523302
538,-0.00425148010253906,0.0000488193697828634
539,-0.00449514389038086,0.0000479725198003886
540,-0.00449609756469727,0.0000507971471223288
541,-0.00446796417236328,0.0000580802535193829
542,-0.00445222854614258,0.0000434497828211506
543,-0.00471973419189453,0.0000558897088312251
544,-0.00464296340942383,0.0000628756399166758
545,-0.00493192672729492,0.0000454173313132883
546,-0.00465631484985352,0.0000370309416110114
547,-0.00411367416381836,0.0000399356457688829
548,-0.00493478775024414,0.0000312237325904786
549,-0.00485610961914063,0.000051303778290988
550,-0.00503444671630859,0.0000432517851043075
551,-0.00464105606079102,0.0000481676341979003
552,-0.00471687316894531,0.0000426715975371003
553,-0.00484228134155273,0.0000476694085591552
554,-0.00493288040161133,0.0000358239287016439
555,-0.00444507598876953,0.0000301002865970146
556,-0.00497198104858398,0.0000364733674288444
557,-0.00488853454589844,0.0000401655707128455
558,-0.00508356094360352,0.0000420530094544802
559,-0.00486183166503906,0.0000581350351491095
560,-0.0046539306640625,0.0000551216330032766
561,-0.00510883331298828,0.0000468211842202429
562,-0.00494575500488281,0.0000370002283755614
563,-0.00478029251098633,0.0000466655266396679
564,-0.00488376617431641,0.0000474267233142052
565,-0.00518369674682617,0.0000288722832071478
566,-0.00487804412841797,0.0000301559449352065
567,-0.00464153289794922,0.0000537018995239855
568,-0.00473594665527344,0.0000471610993636249
569,-0.00431632995605469,0.0000368632441774524
570,-0.00466728210449219,0.00003085011121514
571,-0.0044856071472168,0.0000321104776469643
572,-0.00609779357910156,0.0000387655706061859
573,-0.00384187698364258,0.0000414437057259384
574,-0.00499105453491211,0.0000387941536543685
575,-0.00592231750488281,0.0000375711674102688
576,-0.00379467010498047,0.0000361288724886445
577,-0.00429916381835938,0.0000325517767715423
578,-0.00601530075073242,0.0000210305594623926
579,-0.00524282455444336,0.0000204383970592941
580,-0.00361347198486328,0.0000307282611076006
581,-0.00304508209228516,0.0000265004154366654
582,-0.00688266754150391,0.0000336330794803283
583,-0.00663042068481445,0.000036269414101648
584,-0.00340795516967773,0.0000288180906646572
585,-0.00451231002807617,0.000042357394035796
586,-0.00640964508056641,0.0000512461310868375
587,-0.00360441207885742,0.0000351778513925992
588,-0.00614547729492188,0.0000406893280571195
589,-0.00575399398803711,0.0000318982318884364
590,-0.00493049621582031,0.0000294280391182357
591,-0.00557708740234375,0.000020876946953883
592,-0.00282907485961914,0.0000273059540246668
593,-0.00514888763427734,0.0000241991921580875
594,-0.00476980209350586,0.0000310804932412691
595,-0.00518941879272461,0.0000341621461947467
596,-0.00595664978027344,0.000032227102041695
597,-0.00451421737670898,0.0000343463458262789
598,-0.00482940673828125,0.0000442097739658327
599,-0.00449657440185547,0.0000344356001959501
600,-0.00500726699829102,0.0000242642887975481
601,-0.00551223754882813,0.0000324240502070707
602,-0.00515079498291016,0.0000374423455376945
603,-0.00530910491943359,0.0000290131998959142
604,-0.00621509552001953,0.0000196608610978311
605,-0.00452613830566406,0.0000254002520473749
606,-0.00620079040527344,0.0000478099106800129
607,-0.00550127029418945,0.0000358992199415564
608,-0.00622177124023438,0.0000210041896923791
609,-0.00592803955078125,0.0000258620975179064
610,-0.00532150268554688,0.0000312683035101986
611,-0.00648212432861328,0.000035504361093495
612,-0.0059356689453125,0.0000421798786973651
613,-0.00584220886230469,0.0000311790979561234
614,-0.00663518905639648,0.0000287316645951132
615,-0.0060577392578125,0.0000246604808688386
616,-0.00709676742553711,0.0000287830576587486
617,-0.00623178482055664,0.0000393405104863068
618,-0.00627040863037109,0.0000382221494442898
619,-0.00600910186767578,0.0000277765318965084
620,-0.00582742691040039,0.0000316100239913747
621,-0.00671052932739258,0.0000292177080629473
622,-0.00576019287109375,0.0000482230677746207
623,-0.00677680969238281,0.0000513458641641591
624,-0.00641298294067383,0.0000454210858977872
625,-0.00699901580810547,0.0000334959012638058
626,-0.00680923461914063,0.0000387310963404952
627,-0.00642919540405273,0.000036629660915582
628,-0.0069580078125,0.0000443458557128906
629,-0.00628852844238281,0.0000336803691604811
630,-0.00711441040039063,0.0000319427514242512
631,-0.00682973861694336,0.0000386730809950115
632,-0.00683212280273438,0.0000378365101986091
633,-0.00674152374267578,0.0000347821575468598
634,-0.006866455078125,0.0000342053810154486
635,-0.00683212280273438,0.0000330577483746101
636,-0.00669097900390625,0.0000373990529892007
637,-0.00721359252929688,0.0000427541088119844
638,-0.00718021392822266,0.0000366630103210515
639,-0.00738143920898438,0.000038513272670002
640,-0.0069279670715332,0.0000457142368524155
641,-0.0067143440246582,0.0000387443028750837
642,-0.00638723373413086,0.000043310885726416
643,-0.00649595260620117,0.0000352472660304572
644,-0.00674533843994141,0.0000318009632708293
645,-0.00690603256225586,0.0000331787529852827
646,-0.00702381134033203,0.0000289769315439442
647,-0.00700569152832031,0.0000328369123452658
648,-0.00691413879394531,0.0000385811063383247
649,-0.00716209411621094,0.000049920090974054
650,-0.00722026824951172,0.0000605235788616981
651,-0.00697612762451172,0.0000469097264001785
652,-0.00722312927246094,0.000049515354611518
653,-0.00680732727050781,0.0000475846692423245
654,-0.00821113586425781,0.000038094036804959
655,0.00568246841430664,0.0000195008326021943
656,-0.00539779663085938,0.0000285729523043797
657,-0.0238432884216309,0.0000280149439444589
658,-0.00711250305175781,0.0000264553320660259
659,-0.00789308547973633,0.0000346978905910995
660,-0.00739860534667969,0.0000344793164383365
661,-0.00734138488769531,0.0000335399949203245
662,-0.00738811492919922,0.0000469254766606582
663,-0.00745582580566406,0.0000512960218639497
664,-0.00730991363525391,0.0000408482767964594
665,-0.00735044479370117,0.0000477230386718735
666,-0.0076446533203125,0.0000481688142999229
667,-0.00751686096191406,0.0000510727990684352
668,-0.0075831413269043,0.0000415820047004477
669,-0.00750923156738281,0.0000397494612624501
670,-0.00760173797607422,0.000032289657612693
671,-0.00736284255981445,0.0000368532197622038
672,-0.00736713409423828,0.0000333922222137672
673,-0.00787496566772461,0.0000374453817317911
674,-0.00750017166137695,0.0000389141192686141
675,-0.00756454467773438,0.0000449278288341123
676,-0.00747013092041016,0.0000392435822421434
677,-0.00739860534667969,0.0000380985131023605
678,-0.0075230598449707,0.0000348865940044132
679,-0.00734376907348633,0.0000322509050774558
680,-0.00760459899902344,0.0000276437063624846
681,-0.00743770599365234,0.0000322006335875554
682,-0.00762367248535156,0.0000358136133778103
683,-0.00743341445922852,0.0000273049131435784
684,-0.00731325149536133,0.000041711669404276
685,-0.00734090805053711,0.0000326511610932055
686,-0.00753879547119141,0.0000268509497619927
687,-0.00752687454223633,0.0000332480671105274
688,-0.00762796401977539,0.0000267565774874599
689,-0.00742101669311523,0.0000251534425800967
690,-0.00759458541870117,0.0000308473472397535
691,-0.00726985931396484,0.0000289803642777043
692,-0.00761747360229492,0.0000278694900440263
693,-0.00740957260131836,0.0000268371857443337
694,-0.00760793685913086,0.0000263622388842875
695,-0.00748968124389648,0.0000353993385360025
696,-0.00750589370727539,0.000028737104746474
697,-0.00721883773803711,0.0000314061618806364
698,-0.00761270523071289,0.0000371588951335732
699,-0.00746631622314453,0.000034666750086433
700,-0.00766086578369141,0.0000318509732411561
701,-0.00750637054443359,0.0000302011506244468
702,-0.00734853744506836,0.000027778578275993
703,-0.00748777389526367,0.0000275272809250024
704,-0.00758886337280273,0.0000337553896595032
705,-0.00757932662963867,0.0000319062499892766
706,-0.00719404220581055,0.0000467956821533116
707,-0.00720024108886719,0.0000297636735171629
708,-0.0077519416809082,0.0000285769308545162
709,-0.00760412216186523,0.0000331436128007361
710,-0.00736856460571289,0.0000371994111344187
711,-0.00753593444824219,0.0000392240229309365
712,-0.00764989852905273,0.0000311553883055108
713,-0.00738191604614258,0.0000333794525582835
714,-0.00739336013793945,0.0000384918655381492
715,-0.00756978988647461,0.0000297450468913478
716,-0.00775814056396484,0.0000327675958663708
717,-0.00763320922851563,0.0000366614598586009
718,-0.0074467658996582,0.0000400046199157946
719,-0.00751972198486328,0.0000330904031029503
720,-0.00765562057495117,0.0000347355496392314
721,-0.00765752792358398,0.0000334126435114953
722,-0.00773096084594727,0.0000375741931948763
723,-0.00754976272583008,0.0000342211647284304
724,-0.00759553909301758,0.0000390737429379685
725,-0.00763130187988281,0.0000499166747925446
726,-0.00773477554321289,0.0000512439125915839
727,-0.00782680511474609,0.000040136548064268
728,-0.00764560699462891,0.0000405942201892686
729,-0.0075535774230957,0.000057160823263134
730,-0.00788116455078125,0.0000411898716038122
731,-0.00779867172241211,0.0000258467073369442
732,-0.00805377960205078,0.0000256152998012966
733,-0.00776481628417969,0.0000347698983652766
734,-0.0076909065246582,0.0000476527113252914
735,-0.00794649124145508,0.0000363171839192871
736,-0.00792264938354492,0.0000430898298171324
737,-0.00804281234741211,0.0000335620200248104
738,-0.00824260711669922,0.0000308666898699229
739,-0.00782489776611328,0.0000349712189777578
740,-0.00815439224243164,0.0000436286456811694
741,-0.00808429718017578,0.0000413970456894648
742,-0.00789213180541992,0.0000501212335555955
743,-0.00798845291137695,0.000032351213703124
744,-0.00808620452880859,0.0000208932772714473
745,-0.00816774368286133,0.0000246178006772438
746,-0.00820779800415039,0.0000469000313031647
747,-0.00799942016601563,0.0000459610175225195
748,-0.00824069976806641,0.000043232066942761
749,-0.00783109664916992,0.0000513558268193958
750,-0.00780487060546875,0.0000536129118600698
751,-0.00801467895507813,0.0000484711479991439
752,-0.00811386108398438,0.0000431155462334064
753,-0.00792646408081055,0.0000420881392076124
754,-0.00800466537475586,0.00003850810652086
755,-0.00800180435180664,0.0000319907629351034
756,-0.00794458389282227,0.0000379639945898188
757,-0.00786828994750977,0.000032618066632125
758,-0.00816440582275391,0.0000385125346911244
759,-0.00805759429931641,0.0000360059419257218
760,-0.00794506072998047,0.000037480280285867
761,-0.008148193359375,0.0000312683035101986
762,-0.00825023651123047,0.0000224923637677589
763,-0.00785684585571289,0.0000310154989864979
764,-0.00773906707763672,0.0000463097020804557
765,-0.00777339935302734,0.000044189196923077
766,-0.00835275650024414,0.0000468357505954435
767,-0.0081939697265625,0.0000504028379729478
768,-0.00767087936401367,0.0000316136203306538
769,-0.00785636901855469,0.0000365815222048119
770,-0.00793933868408203,0.0000504850989390029
771,-0.00798749923706055,0.0000545619238350174
772,-0.00822830200195313,0.0000561130168279863
773,-0.00806331634521484,0.0000329026277401075
774,-0.00817966461181641,0.0000408002392313913
775,-0.00811338424682617,0.0000423164433873308
776,-0.00810098648071289,0.0000403322218274638
777,-0.00805425643920898,0.0000274797452291029
778,-0.00802326202392578,0.0000394357591103918
779,-0.00789165496826172,0.0000447719367763729
780,-0.00817775726318359,0.0000534004396102813
781,-0.00798320770263672,0.0000604916378166905
782,-0.00804233551025391,0.0000396227003814311
783,-0.0081486701965332,0.0000488519610399845
784,-0.00814628601074219,0.0000385803696569934
785,-0.00812864303588867,0.0000356935785110892
786,-0.00809955596923828,0.0000415813211849888
787,-0.00792503356933594,0.0000396578329342494
788,-0.00801897048950195,0.0000440874569977275
789,-0.00819301605224609,0.0000447439963825054
790,-0.0083155632019043,0.0000443407281351765
791,-0.00826120376586914,0.0000317651936590697
792,-0.00825071334838867,0.0000373982930234814
793,-0.00807046890258789,0.000041405283634362
794,-0.00796985626220703,0.000057226419138444
795,-0.00829553604125977,0.000048155831587104
796,-0.00856971740722656,0.0000454398541667993
797,-0.00813627243041992,0.0000434707098700804
798,-0.00828886032104492,0.0000358199616209476
799,-0.00837039947509766,0.0000373891722299899
800,-0.00833225250244141,0.0000324914754217614
801,-0.00827169418334961,0.0000350085840053248
802,-0.00839757919311523,0.0000518394586204713
803,-0.00826406478881836,0.0000482772602798756
804,-0.00845623016357422,0.000046656999139395
805,-0.00831031799316406,0.0000559293602673074
806,-0.00831460952758789,0.0000447897079521137
807,-0.00854778289794922,0.0000410329388011282
808,-0.00852441787719727,0.0000407612106037414
809,-0.00855445861816406,0.0000399206975287458
810,-0.00860261917114258,0.0000352682249555063
811,-0.00849246978759766,0.0000354891480835892
812,-0.00858640670776367,0.0000360690355771722
813,-0.00841903686523438,0.000043828831800336
814,-0.00855779647827148,0.0000371359419563051
815,-0.00864791870117188,0.000035829481876696
816,-0.00859451293945313,0.0000559273275441874
817,-0.00861644744873047,0.000038701732351179
818,-0.00862741470336914,0.0000323310010582939
819,-0.00864839553833008,0.0000419860465596772
820,-0.00844621658325195,0.0000442174878881235
821,-0.00867223739624023,0.0000481770742046932
822,-0.00867652893066406,0.0000378552848289505
823,-0.00874042510986328,0.0000353157394545971
824,-0.00878190994262695,0.0000405998209371139
825,-0.00870084762573242,0.0000454811170964919
826,-0.00875568389892578,0.0000411367059873084
827,-0.00870418548583984,0.0000362388397433092
828,-0.00878715515136719,0.00003409552403355
829,-0.00871992111206055,0.0000330474296515282
830,-0.00883817672729492,0.0000433633519912325
831,-0.0089268684387207,0.0000555499940259027
832,-0.00883722305297852,0.0000493128934343278
833,-0.00882387161254883,0.0000456806513348952
834,-0.00881814956665039,0.0000333394092989699
835,-0.00893211364746094,0.0000579322806074457
836,-0.00887680053710938,0.0000449088465803951
837,-0.00893497467041016,0.0000361328056535199
838,-0.008941650390625,0.0000548404194466785
839,-0.00885391235351563,0.0000559222454131289
840,-0.00880908966064453,0.0000501439107957186
841,-0.00884389877319336,0.0000451398847194421
842,-0.00880575180053711,0.0000536425908171093
843,-0.00879526138305664,0.0000370631631163651
844,-0.00873947143554688,0.0000394703379858618
845,-0.00870943069458008,0.0000572184721283878
846,-0.00875473022460938,0.0000505649778043968
847,-0.00859594345092773,0.0000447338319125009
848,-0.00871610641479492,0.0000527158520870827
849,-0.00868844985961914,0.0000520277195939979
850,-0.00859260559082031,0.0000520157000427442
851,-0.00867033004760742,0.0000647358031702258
852,-0.00840568542480469,0.0000555796613391243
853,-0.00839424133300781,0.0000513901278483829
854,-0.00864744186401367,0.0000552184841126026
855,-0.00877285003662109,0.0000465191246266625
856,-0.00860166549682617,0.0000441261200385681
857,-0.00861692428588867,0.000049591064453125
858,-0.00860595703125,0.0000493105879623223
859,-0.00861930847167969,0.0000360532725156829
860,-0.00858163833618164,0.0000483078639344736
861,-0.00851774215698242,0.000056383851678005
862,-0.00842475891113281,0.0000543813912074011
863,-0.00839614868164063,0.0000469315330456889
864,-0.00849342346191406,0.0000551978917254935
865,-0.00852298736572266,0.0000441261200385681
866,-0.00841236114501953,0.0000451058715453547
867,-0.00837612152099609,0.0000512261611707372
868,-0.00841712951660156,0.0000543761645894945
869,-0.00842475891113281,0.0000473247366935711
870,-0.00837135314941406,0.0000350840047886774
871,-0.00845527648925781,0.0000427394813385945
872,-0.00840473175048828,0.0000484429943774082
873,-0.00826883316040039,0.0000492379103375992
874,-0.00831842422485352,0.0000420401662606161
875,-0.00829029083251953,0.0000358461362401663
876,-0.00842475891113281,0.0000563192930746923
877,-0.00836515426635742,0.0000770029266210617
878,-0.00829839706420898,0.00005424847906865
879,-0.00833988189697266,0.0000432701806147986
880,-0.00830984115600586,0.0000490957058547253
881,-0.00843095779418945,0.0000551535920581541
882,-0.00839471817016602,0.0000442457607637865
883,-0.00833225250244141,0.0000545525466961786
884,-0.00829601287841797,0.0000445683343717496
885,-0.00828647613525391,0.0000400138548386978
886,-0.0083770751953125,0.0000435255955018769
887,-0.00838994979858398,0.0000640170534013306
888,-0.00838088989257813,0.0000597589403061283
889,-0.00833225250244141,0.0000624820454799641
890,-0.00831699371337891,0.0000406970108895895
891,-0.00827503204345703,0.0000376293710261376
892,-0.00827646255493164,0.0000547979054776827
893,-0.00829696655273438,0.0000541152404861247
894,-0.00830173492431641,0.0000479630395335502
895,-0.00827646255493164,0.0000518526152871407
896,-0.00831842422485352,0.0000469521189112894
897,-0.00844717025756836,0.0000729342658631347
898,-0.00830793380737305,0.0000617499517180621
899,-0.00848388671875,0.0000637554640473949
900,-0.00839424133300781,0.0000494786051086455
901,-0.00835037231445313,0.0000547055053553463
902,-0.00845670700073242,0.0000388285719341468
903,-0.00836372375488281,0.0000377040722242299
904,-0.00836277008056641,0.0000530297804811777
905,-0.00843000411987305,0.0000583789689975646
906,-0.00852775573730469,0.0000410128468593704
907,-0.00844287872314453,0.0000353768505248617
908,-0.00855112075805664,0.0000326555131306914
909,-0.00845146179199219,0.0000404560571393116
910,-0.00851011276245117,0.0000545754657466945
911,-0.00857925415039063,0.0000452442836169987
912,-0.00861072540283203,0.0000520069568061329
913,-0.00866842269897461,0.0000541078870868846
914,-0.00872278213500977,0.0000568437094296614
915,-0.00873279571533203,0.000049695263112561
916,-0.00866031646728516,0.0000406068207856059
917,-0.00877141952514648,0.0000459164720503151
918,-0.00882101058959961,0.0000594585535699372
919,-0.00891256332397461,0.0000797088615707829
920,-0.00893020629882813,0.0000697373324988509
921,-0.00892257690429688,0.0000649777021700935
922,-0.00904321670532227,0.0000503430300372155
923,-0.00919151306152344,0.0000584315249711624
924,-0.00924205780029297,0.0000669901054800115
925,-0.00941181182861328,0.0000625584183122376
926,-0.0093536376953125,0.0000691463205616921
927,-0.00944662094116211,0.000067482145577753
928,-0.00959682464599609,0.0000610137320706931
929,-0.00966835021972656,0.000061598797843762
930,-0.00982856750488281,0.0000696443482599631
931,-0.00977373123168945,0.0000803778303641246
932,-0.00994062423706055,0.0000638196258858873
933,-0.00991535186767578,0.0000812276388553287
934,-0.0101313591003418,0.000105599784746172
935,-0.0102653503417969,0.0000832227704878676
936,-0.0104365348815918,0.0000620548190498255
937,-0.010465145111084,0.0000679890198617461
938,-0.0106315612792969,0.0000599574140169105
939,-0.0107498168945312,0.000071533520574972
940,-0.0110201835632324,0.0000767218985028029
941,-0.010932445526123,0.0000636162247324854
942,-0.0110650062561035,0.0000593140192545837
943,-0.0113162994384766,0.0000748619152328124
944,-0.0112318992614746,0.0000655490682225976
945,-0.0115618705749512,0.0000791305481342772
946,-0.0117316246032715,0.0000818925305336093
947,-0.0118613243103027,0.0000847912472930726
948,-0.0121712684631348,0.0000776659271227319
949,-0.0124082565307617,0.0000463587745770898
950,-0.0125918388366699,0.0000673151541475482
951,-0.0126376152038574,0.0000758440941342062
952,-0.0128564834594727,0.0000593293508268604
953,-0.0131626129150391,0.0000563798189310358
954,-0.0134506225585937,0.0000766255206897192
955,-0.0134835243225098,0.0000790385458672084
956,-0.0135064125061035,0.0000928866055379832
957,-0.0142970085144043,0.0000874603063638655
958,-0.0143346786499023,0.0000867555381778124
959,-0.014683723449707,0.000117228260004953
960,-0.0145149230957031,0.0000892844950763553
961,-0.0147666931152344,0.000106871111460789
962,-0.0149111747741699,0.000114605705510911
963,-0.0148124694824219,0.000110617999067299
964,-0.0147800445556641,0.000101152436426146
965,-0.0145483016967773,0.000106864728618997
966,-0.0145621299743652,0.00011161656877402
967,-0.0145468711853027,0.000142397978834067
968,-0.0143780708312988,0.000159836498249935
969,-0.014376163482666,0.000132306630691827
970,-0.0141348838806152,0.000112185505673121
971,-0.0140891075134277,0.000154933190969182
972,-0.0140323638916016,0.000131917669869215
973,-0.0138568878173828,0.000135179760127105
974,-0.0136232376098633,0.00014363804269663
975,-0.0134940147399902,0.000151592224832597
976,-0.0136227607727051,0.00011867019829027
977,-0.0131993293762207,0.000112134825096228
978,-0.0131649971008301,0.000172891448222487
979,-0.0132341384887695,0.000185875992884907
980,-0.0131630897521973,0.000136778309740504
981,-0.0128593444824219,0.000163604489770841
982,-0.0129680633544922,0.000179863077206143
983,-0.0125870704650879,0.000138860351332869
984,-0.0124473571777344,0.000130350220630891
985,-0.0122818946838379,0.000158350146598857
986,-0.0121417045593262,0.000128643560248697
987,-0.0119838714599609,0.00016020309294558
988,-0.0119266510009766,0.000160795259202505
989,-0.0119056701660156,0.000135643200407784
990,-0.0117897987365723,0.000277189668649062
991,-0.0117030143737793,0.000216977150277567
992,-0.0114665031433105,0.000251777244233019
993,-0.0117993354797363,0.000227198770449631
994,-0.0111532211303711,0.000193800137266244
995,-0.0111360549926758,0.000269665641813999
996,-0.0109057426452637,0.000207682153149661
997,-0.0110898017883301,0.00020353742571271
998,-0.0109038352966309,0.000187211879504271
999,-0.0106449127197266,0.000245596597333067
1000,-0.0108933448791504,0.000260197589535293
1001,-0.0108418464660645,0.000287162089455325
1002,-0.0106720924377441,0.000227842354683661
1003,-0.0109376907348633,0.000208639007417731
1004,-0.010591983795166,0.000219697254928434
1005,-0.0105938911437988,0.000235679147203728
1006,-0.0103492736816406,0.000221322311681598
1007,-0.0107879638671875,0.000248314523943722
1008,-0.0108857154846191,0.000256614602833056
1009,-0.0102834701538086,0.00020569320243138
1010,-0.010340690612793,0.000280490516207171
1011,-0.0107340812683105,0.000295546732613088
1012,-0.0103707313537598,0.000170678397279172
1013,-0.0103116035461426,0.000252944921436114
1014,-0.0107154846191406,0.000249155514416625
1015,-0.0107364654541016,0.000250807279705799
1016,-0.0107088088989258,0.000247749830339501
1017,-0.0112147331237793,0.000225632168421175
1018,-0.0110392570495605,0.000254236050680462
1019,-0.0113134384155273,0.000361853745627767
1020,-0.0111374855041504,0.00029828517845351
1021,-0.011497974395752,0.000339604481923342
1022,-0.0114917755126953,0.000230414504146968
1023,-0.0114016532897949,0.000268279281196857
1024,-0.0116949081420898,0.000303292423474959
1025,-0.011713981628418,0.000304316263964525
1026,-0.0116705894470215,0.000198634586999125
1027,-0.0120100975036621,0.000276150885847314
1028,-0.0120997428894043,0.000218139319694455
1029,-0.0121512413024902,0.000318395850221729
1030,-0.0121526718139648,0.000260190598641015
1031,-0.0122509002685547,0.00025125653471992
1032,-0.0129365921020508,0.000295497491237769
1033,-0.0131168365478516,0.00030630023744047
1034,-0.0130939483642578,0.000456139544366841
1035,-0.0138745307922363,0.000331434412938871
1036,-0.0141582489013672,0.000421070700883381
1037,-0.013801097869873,0.000509529900584149
1038,-0.0135498046875,0.000470067608738505
1039,-0.0149645805358887,0.000333295188795976
1040,-0.0147228240966797,0.00041655376265621
1041,-0.0143342018127441,0.000492362017005133
1042,-0.0144014358520508,0.000393080444559125
1043,-0.0154438018798828,0.000618251694137195
1044,-0.0155339241027832,0.000537290325894987
1045,-0.0150885581970215,0.000407137404774269
1046,-0.0161561965942383,0.000470083087017992
1047,-0.0165848731994629,0.000514560101037901
1048,-0.0165338516235352,0.000457047856469327
1049,-0.0161137580871582,0.000444899034541823
1050,-0.0164508819580078,0.000481234303538146
1051,-0.0170340538024902,0.000751078921114732
1052,-0.0175023078918457,0.00064800468040729
1053,-0.0167145729064941,0.000639084192195811
1054,-0.0174298286437988,0.000608895472300731
1055,-0.0172238349914551,0.000792924996047431
1056,-0.0178351402282715,0.000689310623765973
1057,-0.018887996673584,0.000784604500255276
1058,-0.0192322731018066,0.000690165082549191
1059,-0.0196967124938965,0.000926633859712138
1060,-0.0204224586486816,0.000863841543867075
1061,-0.019780158996582,0.000851130685558075
1062,-0.0190644264221191,0.000701385804112237
1063,-0.0186142921447754,0.000901576885698672
1064,-0.0191006660461426,0.000776719577156153
1065,-0.0181536674499512,0.000878341811453319
1066,-0.016944408416748,0.00140360125793518
1067,-0.0179347991943359,0.000887079121549575
1068,-0.0183672904968262,0.000811195171723026
1069,-0.0176749229431152,0.000910187087334755
1070,-0.0172634124755859,0.000903076706076838
1071,-0.0187516212463379,0.001119858943966
1072,-0.0179243087768555,0.00069519652513841
1073,-0.0174484252929687,0.00102625991667232
1074,-0.0182151794433594,0.000913745417576896
1075,-0.0179967880249023,0.000739244631016072
1076,-0.0191144943237305,0.00126475481005727
1077,-0.0182900428771973,0.00109539614846421
1078,-0.0183539390563965,0.00106571472718715
1079,-0.0183706283569336,0.0012322357901752
1080,-0.0199031829833984,0.00141582323280062
1081,-0.0204834938049316,0.00134558816150199
1082,-0.0199685096740723,0.00120978238787322
1083,-0.0192241668701172,0.00103152122687717
1084,-0.0190482139587402,0.000900365533292929
1085,-0.0210390090942383,0.00118427766579886
1086,-0.0198731422424316,0.00128767364995213
1087,-0.0203456878662109,0.00155025091639878
1088,-0.0226497650146484,0.00171852852738251
1089,-0.0226650238037109,0.00178093667579025
1090,-0.0218682289123535,0.00145143090217213
1091,-0.0201292037963867,0.000998285210999079
1092,-0.0261421203613281,0.00118803171751842
1093,-0.0222721099853516,0.00163411586249759
1094,-0.0226230621337891,0.00224210758598482
1095,-0.0223221778869629,0.00226242101963509
1096,-0.0278477668762207,0.00248577803754278
1097,-0.0250444412231445,0.00219079229692841
1098,-0.0226449966430664,0.00147939448773692
1099,-0.0244536399841309,0.00184684934799982
1100,-0.0245985984802246,0.0017462482469382
