Wavelength (nm),Absorbance (AU),Std.Dev.
190,0.48668909072876,0.000107247026746532
191,0.459721088409424,0.0000647744273070319
192,0.436750411987305,0.000052909589792939
193,0.417999267578125,0.0000515304130457324
194,0.402040004730225,0.000052217479026809
195,0.388621807098389,0.0000425000762084144
196,0.377571582794189,0.0000513480782545921
197,0.367735385894775,0.0000576854725222192
198,0.359096527099609,0.0000441724710177741
199,0.351253032684326,0.0000421798786973651
200,0.343931674957275,0.0000335696407325953
201,0.337146759033203,0.0000388680787158781
202,0.331063270568848,0.0000396140917413277
203,0.325344562530518,0.0000375999025329476
204,0.319989204406738,0.0000507041827489274
205,0.314826011657715,0.0000387699693698144
206,0.309698104858398,0.0000360840041074389
207,0.304827213287354,0.0000386289604897035
208,0.300040245056152,0.0000485543402162273
209,0.295448780059814,0.0000489170784119879
210,0.290896892547607,0.0000453020396290345
211,0.286483287811279,0.0000487646140620742
212,0.282101631164551,0.0000546992705175991
213,0.277977466583252,0.0000612953718727929
214,0.274014949798584,0.0000373062229043363
215,0.270036220550537,0.0000312873858959481
216,0.266160011291504,0.0000323758033690795
217,0.26227855682373,0.0000453446815738422
218,0.258538246154785,0.0000525776487306043
219,0.254735946655273,0.00004295109213639
220,0.251078128814697,0.0000378462741687295
221,0.247489929199219,0.0000379595024295976
222,0.243905067443848,0.000037082329291211
223,0.240458011627197,0.0000443368820627304
224,0.237119197845459,0.0000454148280845096
225,0.233901977539062,0.0000413874326813296
226,0.230882167816162,0.0000408524513065412
227,0.227942943572998,0.0000405213400224289
228,0.225162506103516,0.0000550555943327626
229,0.22242259979248,0.0000417947157137434
230,0.219636917114258,0.0000408343586806863
231,0.216944217681885,0.0000303625849868647
232,0.214210987091064,0.0000279260323902422
233,0.211453437805176,0.0000408127762211572
234,0.208804130554199,0.0000523620613166844
235,0.206087112426758,0.0000453659875156974
236,0.203392028808594,0.0000578861456223068
237,0.200766086578369,0.000040239801561004
238,0.198223114013672,0.0000264982703488007
239,0.195700168609619,0.0000261136377083639
240,0.193441867828369,0.0000341430056380139
241,0.191274166107178,0.0000302030327265036
242,0.189194202423096,0.0000383372330517612
243,0.187247276306152,0.0000330353870676378
244,0.185312747955322,0.0000377650814803526
245,0.183527946472168,0.0000281000343664467
246,0.18178653717041,0.0000331067183887818
247,0.180200099945068,0.000024421907632227
248,0.178617000579834,0.0000311316605978026
249,0.177035331726074,0.0000324818518172141
250,0.175484657287598,0.0000313826237778545
251,0.173935890197754,0.0000473703578511843
252,0.17250919342041,0.0000426556091776404
253,0.170928478240967,0.0000356074775530411
254,0.169461250305176,0.0000389265335802272
255,0.168106079101562,0.0000314631234854547
256,0.166494369506836,0.0000326816131853154
257,0.165175437927246,0.000037685976440014
258,0.163603782653809,0.0000404356785538747
259,0.162078857421875,0.0000299155943705714
260,0.160512924194336,0.0000396105042557656
261,0.159018993377686,0.000037961748576155
262,0.157235145568848,0.0000492771464970933
263,0.155492305755615,0.000037335161942929
264,0.153743267059326,0.0000376051934500965
265,0.151871204376221,0.0000337806399233455
266,0.149942874908447,0.000054236951666247
267,0.148038864135742,0.0000531411427145196
268,0.14596700668335,0.0000420442224298822
269,0.144078731536865,0.0000409129338375313
270,0.142172336578369,0.000040204470631087
271,0.140124320983887,0.0000382117377291007
272,0.138065338134766,0.0000379864474224902
273,0.136144638061523,0.0000416837232540271
274,0.134198188781738,0.0000500974114056045
275,0.132246017456055,0.0000337957810261905
276,0.130321502685547,0.0000408587122719631
277,0.128372192382812,0.0000357238239392706
278,0.126420497894287,0.0000425281542194484
279,0.124467849731445,0.0000411270321275704
280,0.122497081756592,0.0000394854567216113
281,0.120475292205811,0.0000402567493933829
282,0.118453979492187,0.0000291188059067889
283,0.116424560546875,0.0000359055530491194
284,0.114511966705322,0.0000233826522086927
285,0.112527847290039,0.000028108124781749
286,0.110481739044189,0.0000383350089058092
287,0.108351230621338,0.0000490586419967636
288,0.106431007385254,0.0000298528243370665
289,0.104545116424561,0.0000330500096343297
290,0.102638244628906,0.0000340680044367142
291,0.100773334503174,0.0000394566541379247
292,0.0989246368408203,0.0000355291683359175
293,0.0971465110778809,0.000032689439138112
294,0.0954074859619141,0.0000367783359494661
295,0.0937705039978027,0.0000543772099532655
296,0.0921053886413574,0.000038077619212375
297,0.0905489921569824,0.0000279540064942313
298,0.0891079902648926,0.0000316369865711181
299,0.0874924659729004,0.0000312128075612462
300,0.0861058235168457,0.0000344537532943837
301,0.084719181060791,0.0000387641042407207
302,0.0833687782287598,0.000032590171546253
303,0.0820250511169434,0.0000314224471614201
304,0.0808835029602051,0.0000327276724133295
305,0.0795860290527344,0.0000297383575645403
306,0.0783743858337402,0.0000521019607223831
307,0.0772299766540527,0.0000591547197193203
308,0.0760664939880371,0.0000602005731940293
309,0.0748300552368164,0.0000643359183331411
310,0.0737466812133789,0.0000576499871114793
311,0.0726766586303711,0.0000450554344597539
312,0.0715975761413574,0.0000538583295736791
313,0.0704855918884277,0.0000411677851400217
314,0.0694131851196289,0.0000289170384574893
315,0.0683856010437012,0.0000371887130845295
316,0.0672750473022461,0.0000433213840627055
317,0.0661993026733398,0.0000480648544088189
318,0.0651412010192871,0.0000397616147656965
319,0.0640096664428711,0.0000492182805283991
320,0.0630521774291992,0.0000488147121126927
321,0.0620408058166504,0.0000461954070322197
322,0.0609731674194336,0.0000367798814849846
323,0.0600743293762207,0.0000381708070682325
324,0.0589642524719238,0.0000567195745210266
325,0.058049201965332,0.0000555489707324997
326,0.0569519996643066,0.0000576490010938264
327,0.0560822486877441,0.0000542516224805758
328,0.0551853179931641,0.0000471152755839576
329,0.0543041229248047,0.0000600388920920372
330,0.0532770156860352,0.0000402623970855254
331,0.0523481369018555,0.000056705542216949
332,0.0513730049133301,0.0000471297510645339
333,0.0505223274230957,0.0000422552793132035
334,0.0496582984924316,0.000035024817236284
335,0.0487079620361328,0.0000346536299231903
336,0.0478730201721191,0.0000375113581529707
337,0.0469732284545898,0.0000518372655180433
338,0.0461077690124512,0.0000554752440023849
339,0.0453281402587891,0.0000587478086361766
340,0.0443964004516602,0.0000437457488148044
341,0.0435400009155273,0.0000445083491864073
342,0.0427055358886719,0.0000435321248962375
343,0.0419907569885254,0.0000368254456016801
344,0.0411529541015625,0.0000401889151820623
345,0.0403499603271484,0.0000380208493467625
346,0.0395255088806152,0.000042115142154738
347,0.0388088226318359,0.0000464077951835496
348,0.0379443168640137,0.0000512672020036791
349,0.0372424125671387,0.0000461178204178818
350,0.0365839004516602,0.0000305678281733257
351,0.0358047485351562,0.0000300241795558867
352,0.0350308418273926,0.0000439221123046024
353,0.0343828201293945,0.0000473163279983959
354,0.0336713790893555,0.000064429505605484
355,0.0330357551574707,0.000050456942475123
356,0.032371997833252,0.0000319249510598574
357,0.0317440032958984,0.0000466155576627693
358,0.0311279296875,0.0000439971111084121
359,0.0304985046386719,0.0000465801813856177
360,0.0298728942871094,0.0000602788936562423
361,0.0290231704711914,0.0000544555550438211
362,0.0283732414245605,0.0000515138638241975
363,0.0277280807495117,0.0000422458615958154
364,0.0272221565246582,0.0000546410443919686
365,0.0268063545227051,0.0000606089853112627
366,0.0266156196594238,0.0000430046582667086
367,0.0260787010192871,0.0000526478754603709
368,0.0252838134765625,0.0000643659517155703
369,0.0249595642089844,0.0000792841259730067
370,0.0243206024169922,0.0000695741200196666
371,0.024296760559082,0.0000760626266418209
372,0.0239357948303223,0.0000640223808305748
373,0.0235376358032227,0.0000719787230273606
374,0.0234842300415039,0.0000787748840062408
375,0.0230846405029297,0.000108869348089831
376,0.0223984718322754,0.0000918477985925346
377,0.0225577354431152,0.0000707601279460079
378,0.022489070892334,0.0000652483310054677
379,0.0213899612426758,0.0000976643521702959
380,0.0210661888122559,0.0000749984665384211
381,0.0205855369567871,0.0000657274663548003
382,0.0207090377807617,0.000051874535649687
383,0.0198445320129395,0.0000670240382678628
384,0.0197348594665527,0.0000670409982211361
385,0.0190591812133789,0.0000682843463929645
386,0.0190033912658691,0.0000623162499103962
387,0.0189952850341797,0.0000769438481049062
388,0.0183100700378418,0.000091478198227844
389,0.0166945457458496,0.0000774871385936365
390,0.0175023078918457,0.0000809219491409166
391,0.0173211097717285,0.0000929379964424535
392,0.0175237655639648,0.0000913214742977076
393,0.0161786079406738,0.0000639530896350822
394,0.0154757499694824,0.0000558021727641054
395,0.0153670310974121,0.0000627163233256899
396,0.0151815414428711,0.0000669985902881567
397,0.0158491134643555,0.0000550700470588307
398,0.015129566192627,0.0000593101857422673
399,0.0136284828186035,0.0000598216873533423
400,0.013887882232666,0.0000677813579533927
401,0.013455867767334,0.0000737480733077286
402,0.0132045745849609,0.000102875337652815
403,0.0133275985717773,0.0000746596655061542
404,0.0130939483642578,0.0000650633774822833
405,0.0127873420715332,0.0000746718463873392
406,0.0112738609313965,0.000060423942220197
407,0.0113482475280762,0.0000514188788097709
408,0.0123825073242187,0.0000761627022098595
409,0.0111055374145508,0.0000590527735188861
410,0.0106778144836426,0.0000595435783370996
411,0.0109105110168457,0.0000676823273769069
412,0.0111331939697266,0.0000660879787222233
413,0.0101027488708496,0.000061102174681249
414,0.0095524787902832,0.000054092126436675
415,0.00980186462402344,0.0000435399588769667
416,0.00943374633789063,0.0000554444955968805
417,0.00909805297851563,0.0000623691337079714
418,0.00922060012817383,0.0000486175178620846
419,0.00885963439941406,0.0000606746007741408
420,0.00919818878173828,0.0000615378628529382
421,0.00986194610595703,0.000066485875374337
422,0.00768852233886719,0.0000552812435170806
423,0.00760841369628906,0.0000524835058962055
424,0.00722122192382813,0.0000696247568071136
425,0.00684118270874023,0.0000713441455094403
426,0.00718927383422852,0.0000575957310733967
427,0.00810575485229492,0.000043782117020813
428,0.00632762908935547,0.0000453120766380485
429,0.00817203521728516,0.0000364195597955013
430,0.00633001327514648,0.0000531849810505892
431,0.00497102737426758,0.0000676705683693191
432,0.00536823272705078,0.0000535004066649696
433,0.00655984878540039,0.0000757135727942802
434,0.00506591796875,0.0000649759525180657
435,0.00471925735473633,0.0000515888444439593
436,0.00557899475097656,0.0000626546606927801
437,0.00507164001464844,0.0000471140690931547
438,0.00531291961669922,0.0000596827948364826
439,0.00464057922363281,0.000050834061626161
440,0.00512170791625977,0.0000394969718740059
441,0.00600528717041016,0.0000417068994359397
442,0.0033259391784668,0.0000408760988108527
443,0.00477266311645508,0.0000549222438112978
444,0.00358819961547852,0.0000658000723995804
445,0.00395011901855469,0.0000701906888376511
446,0.00389671325683594,0.0000548165742072599
447,0.00301742553710937,0.0000439673855103798
448,0.00349998474121094,0.0000463501906406584
449,0.00347471237182617,0.0000519610306773322
450,0.00274038314819336,0.0000517340848342974
451,0.00300264358520508,0.0000471321632124007
452,0.00265598297119141,0.0000455797462972844
453,0.00249671936035156,0.0000380365442284822
454,0.00272941589355469,0.0000597998284323077
455,0.00241374969482422,0.0000688712003919001
456,0.0023646354675293,0.0000609764546992153
457,0.00293397903442383,0.0000574791544042524
458,0.00240945816040039,0.0000696720933877945
459,0.0017848014831543,0.0000578507833036765
460,0.00144195556640625,0.0000615784928799559
461,0.00165462493896484,0.0000502899333063295
462,0.00157928466796875,0.0000573712587077905
463,0.00263833999633789,0.0000597351552736608
464,0.00179386138916016,0.0000405213400224289
465,0.00139617919921875,0.0000470150314880399
466,0.000508308410644531,0.0000628774480128362
467,0.00124931335449219,0.0000787055805758106
468,0.000944614410400391,0.0000750681635061433
469,0.000711441040039063,0.0000513912339520162
470,0.00114870071411133,0.0000680942828974198
471,0.00105524063110352,0.0000786434443913246
472,0.00134992599487305,0.0000580401127542771
473,0.000806808471679688,0.0000751725877949579
474,0.000686168670654297,0.000054044816909152
475,0.00114822387695312,0.0000525354676325211
476,0.000276088714599609,0.0000585607672411534
477,0.000407218933105469,0.0000593954228989025
478,0.000626087188720703,0.000073127296358811
479,0.000673770904541016,0.0000914508530859771
480,0.000354290008544922,0.0000794960623884554
481,0.0000834465026855469,0.0000610630895352795
482,-0.00011444091796875,0.0000517340848342974
483,0.000605583190917969,0.0000404567596660695
484,-0.000725746154785156,0.000041218152589749
485,0.0144791603088379,0.000037881553679081
486,-0.00867748260498047,0.0000593101857422673
487,-0.0016779899597168,0.0000635929885398801
488,-0.00195169448852539,0.0000565197881554743
489,-0.000179290771484375,0.000061779402036521
490,-0.000683784484863281,0.0000633152846612856
491,-0.000650882720947266,0.0000529997583619557
492,-0.000609874725341797,0.0000417402777672091
493,-0.000377655029296875,0.0000572025747961012
494,-0.00104522705078125,0.0000568457093842553
495,-0.000356674194335937,0.0000722844870057571
496,-0.000916481018066406,0.0000852165503074722
497,-0.00130701065063477,0.0000840302891277281
498,-0.000553607940673828,0.0000666873430119553
499,-0.000752925872802734,0.0000434183733354882
500,-0.00142765045166016,0.0000750636200243416
501,-0.000919818878173828,0.0000718902193822266
502,-0.00119924545288086,0.0000824032004441374
503,-0.00121545791625977,0.0000699814375057542
504,-0.0015254020690918,0.0000584247148267882
505,-0.00100469589233398,0.0000777288447352562
506,-0.00172042846679687,0.0000627344478595843
507,-0.00171422958374023,0.0000515844368362411
508,-0.00155496597290039,0.0000571001297635848
509,-0.00169944763183594,0.0000683442566323632
510,-0.00156450271606445,0.0000831872454894064
511,-0.00165414810180664,0.0000676066980687554
512,-0.00155496597290039,0.0000598406886203314
513,-0.00184965133666992,0.000056233436594492
514,-0.00191736221313477,0.0000590595112419405
515,-0.00179624557495117,0.0000662426189275374
516,-0.00186538696289062,0.0000657603218761498
517,-0.00212812423706055,0.0000792367925903993
518,-0.00205135345458984,0.0000738912990034573
519,-0.00229215621948242,0.0000609363560911171
520,-0.00226449966430664,0.000077611747885498
521,-0.00223255157470703,0.0000732111989467684
522,-0.00224113464355469,0.000072190059157469
523,-0.00209236145019531,0.0000548901500571666
524,-0.00237083435058594,0.0000680124257266061
525,-0.00238132476806641,0.0000572254258225411
526,-0.00244760513305664,0.0000475978077448569
527,-0.00245332717895508,0.0000374613177135512
528,-0.00220251083374023,0.0000480423789942198
529,-0.00260686874389648,0.0000488949947381924
530,-0.00253772735595703,0.0000666139974025739
531,-0.00249195098876953,0.0000769054227322713
532,-0.0022883415222168,0.0000695299869644314
533,-0.00222301483154297,0.0000718775671083901
534,-0.00256586074829102,0.0000749317392124003
535,-0.00281953811645508,0.0000819688484080843
536,-0.00297021865844727,0.0000678852683126717
537,-0.00243330001831055,0.0000495302763084838
538,-0.00255632400512695,0.0000543092194553522
539,-0.0028538703918457,0.0000494877950428088
540,-0.00279903411865234,0.0000543468862402216
541,-0.00278806686401367,0.0000594260400846848
542,-0.00280618667602539,0.0000496414735322568
543,-0.00307464599609375,0.000058846419406795
544,-0.0030055046081543,0.0000579087269094608
545,-0.00326681137084961,0.0000562000687328933
546,-0.00306892395019531,0.0000392146020053938
547,-0.0024876594543457,0.0000450970491274317
548,-0.00337362289428711,0.0000447465371392368
549,-0.00328207015991211,0.0000439816046073048
550,-0.00339984893798828,0.0000282915567083015
551,-0.00304603576660156,0.0000506379958609249
552,-0.00310611724853516,0.0000625656870531339
553,-0.00325918197631836,0.0000347960460646783
554,-0.00340557098388672,0.0000305678281733257
555,-0.00292634963989258,0.0000306541768310294
556,-0.00339555740356445,0.0000426176127843939
557,-0.00340938568115234,0.0000459573070489578
558,-0.00356626510620117,0.0000504468023010218
559,-0.00332164764404297,0.0000560471320683402
560,-0.00317144393920898,0.000051212843567192
561,-0.00356483459472656,0.0000683558997479985
562,-0.00350809097290039,0.0000526349175779545
563,-0.00334501266479492,0.0000441879105397478
564,-0.00337409973144531,0.0000447351025975532
565,-0.00371551513671875,0.000041039864776163
566,-0.00342845916748047,0.0000432754350386935
567,-0.00317764282226562,0.0000429954046936686
568,-0.0034022331237793,0.0000453108221335109
569,-0.00295639038085937,0.0000400599975196995
570,-0.00326204299926758,0.0000440874569977275
571,-0.00314092636108398,0.0000409712460437625
572,-0.00467205047607422,0.0000417137135094467
573,-0.00257158279418945,0.0000431267511543084
574,-0.00364542007446289,0.000041377817439874
575,-0.00443267822265625,0.0000341613142196314
576,-0.00254058837890625,0.0000407800326408869
577,-0.00301027297973633,0.0000324573424936077
578,-0.00459718704223633,0.0000238347042795776
579,-0.00387477874755859,0.0000356010914206213
580,-0.00235223770141602,0.0000348654056671994
581,-0.00189399719238281,0.0000264730525465973
582,-0.00545310974121094,0.0000222841671858748
583,-0.00523519515991211,0.0000365333200633582
584,-0.00222492218017578,0.0000323345172085009
585,-0.0032801628112793,0.000029366646544111
586,-0.00494527816772461,0.0000438651311230042
587,-0.00243854522705078,0.0000380895599815015
588,-0.00474214553833008,0.0000409719397368172
589,-0.00446748733520508,0.0000374431046092998
590,-0.00368404388427734,0.0000426049397896791
591,-0.00432157516479492,0.0000291222219173479
592,-0.00176858901977539,0.0000324783516176547
593,-0.00383424758911133,0.0000360950295787345
594,-0.00354671478271484,0.0000347052618811854
595,-0.0039215087890625,0.0000322050465072526
596,-0.00464773178100586,0.0000375015069835234
597,-0.00329828262329102,0.0000427826844332847
598,-0.00357294082641602,0.0000527039894699846
599,-0.00332117080688477,0.0000393542347185354
600,-0.00378894805908203,0.0000291967863119575
601,-0.00428915023803711,0.0000349110261062975
602,-0.00390291213989258,0.0000337940990164332
603,-0.00405359268188477,0.0000282422883891313
604,-0.00491809844970703,0.00003096322177207
605,-0.003387451171875,0.0000326372306734607
606,-0.00496768951416016,0.0000334262507788122
607,-0.00435638427734375,0.0000337772743121063
608,-0.00500106811523438,0.0000356050828876123
609,-0.00474119186401367,0.0000340638328613454
610,-0.00416040420532227,0.0000315344061233278
611,-0.00528669357299805,0.0000354410641285963
612,-0.00471735000610352,0.0000421711181080042
613,-0.00467252731323242,0.000049831194140975
614,-0.00542926788330078,0.0000376384336131176
615,-0.00494861602783203,0.0000442406215848663
616,-0.00591421127319336,0.00003502725157205
617,-0.0051116943359375,0.0000356178525761382
618,-0.00514411926269531,0.0000312155391770184
619,-0.00489425659179688,0.0000380955289625343
