Wavelength (nm),Absorbance (AU),Std.Dev.
190,0.287130832672119,0.000123238192233196
191,0.274887084960937,0.0000781285715404359
192,0.265891551971436,0.00006152308164505
193,0.257891654968262,0.0000587768289777908
194,0.251456737518311,0.0000408434059954374
195,0.245773792266846,0.0000479784440159045
196,0.241008281707764,0.0000359514347148629
197,0.236869335174561,0.0000451348473480706
198,0.232885837554932,0.0000403920760563617
199,0.229017734527588,0.0000315515260250488
200,0.225325584411621,0.0000453371594391049
201,0.221741199493408,0.0000490690690364725
202,0.218426704406738,0.0000554444955968805
203,0.215258598327637,0.0000390002077158251
204,0.212188243865967,0.0000385442550238823
205,0.209065437316895,0.000030754148442527
206,0.205954074859619,0.0000316037294128914
207,0.202784061431885,0.0000324310619496422
208,0.199634075164795,0.0000330345267150869
209,0.196443557739258,0.0000521074154540921
210,0.193184852600098,0.0000417777114753921
211,0.189987659454346,0.0000438962209369288
212,0.186880588531494,0.0000473199319078647
213,0.183684349060059,0.0000412980621760838
214,0.180717945098877,0.0000410820879386169
215,0.177666664123535,0.0000356880041890166
216,0.174815654754639,0.0000268943132147737
217,0.17200756072998,0.000027119523869909
218,0.169358730316162,0.0000326328761977607
219,0.166736125946045,0.0000283422436238119
220,0.164155006408691,0.0000366467271936451
221,0.161709785461426,0.0000448239610370851
222,0.159339904785156,0.0000335569385914837
223,0.156953811645508,0.0000280808102881154
224,0.154661178588867,0.0000309163724933002
225,0.152274608612061,0.0000369156352209875
226,0.150052070617676,0.0000377198989140483
227,0.147765636444092,0.0000393564012650821
228,0.145509719848633,0.0000477670894348068
229,0.143274307250977,0.0000474243261485783
230,0.141013145446777,0.0000372032311209902
231,0.138894081115723,0.0000272215137027589
232,0.136720657348633,0.0000408308784104462
233,0.134610652923584,0.0000381745298508644
234,0.132487297058105,0.0000341405082525271
235,0.130468368530273,0.0000356338082516131
236,0.128484725952148,0.0000359474817054373
237,0.126587867736816,0.0000340596607750484
238,0.124887466430664,0.000032797073270386
239,0.123146533966064,0.0000372642976500387
240,0.121532917022705,0.0000402235531875937
241,0.120137691497803,0.0000388739281577586
242,0.11863374710083,0.00004036532866491
243,0.11733865737915,0.0000312091650349692
244,0.116117000579834,0.0000303002719415246
245,0.114931106567383,0.0000311334864481076
246,0.113829135894775,0.0000332292553538474
247,0.112768173217773,0.0000377944211829371
248,0.111798286437988,0.0000337814812737627
249,0.110945701599121,0.0000414519343978602
250,0.110074043273926,0.0000343628919038483
251,0.10927152633667,0.0000291812069017773
252,0.108535289764404,0.0000332010177336296
253,0.107753753662109,0.0000296363980019127
254,0.10703706741333,0.0000368755781783588
255,0.106239318847656,0.0000412801648568571
256,0.105557918548584,0.0000355555570264955
257,0.104868412017822,0.000030839975427666
258,0.104109287261963,0.0000487179649730382
259,0.103384971618652,0.000056066398698353
260,0.10260534286499,0.0000316262042976197
261,0.101746559143066,0.0000368424211877726
262,0.100810527801514,0.0000460561507098662
263,0.0999717712402344,0.0000533759510763387
264,0.0990610122680664,0.0000446956945627231
265,0.0980515480041504,0.0000479393306643143
266,0.097038745880127,0.0000420415183605203
267,0.095888614654541,0.0000417402777672091
268,0.0948076248168945,0.0000439518685218922
269,0.0935859680175781,0.0000520124215012489
270,0.0925197601318359,0.0000623509029824619
271,0.0912175178527832,0.0000451298094144297
272,0.0899453163146973,0.0000462163207872903
273,0.088615894317627,0.0000601202597439776
274,0.0872421264648438,0.0000515193808220418
275,0.0860543251037598,0.0000435282073771532
276,0.0846552848815918,0.0000472128989494156
277,0.0833120346069336,0.0000455859814714285
278,0.0819892883300781,0.000036440624418461
279,0.0806679725646973,0.000038051485716362
280,0.0793652534484863,0.0000396821923447042
281,0.078066349029541,0.0000429173310137847
282,0.076777458190918,0.0000486712711730988
283,0.0754914283752441,0.0000513868093946294
284,0.074213981628418,0.0000376195507599112
285,0.0728754997253418,0.0000255230401822522
286,0.0716390609741211,0.0000330293641291598
287,0.0703787803649902,0.0000398258950492406
288,0.0691599845886231,0.0000417709078418521
289,0.0679225921630859,0.000048212457768259
290,0.0666975975036621,0.0000408232207715311
291,0.0654597282409668,0.0000315037472899607
292,0.0643119812011719,0.0000343604105001524
293,0.0631914138793945,0.0000371963548627022
294,0.0620670318603516,0.0000410682490620069
295,0.0609989166259766,0.0000416502996002927
296,0.0599894523620606,0.0000404398956554718
297,0.0589432716369629,0.0000432872551604704
298,0.0579075813293457,0.0000487890869787004
299,0.056920051574707,0.0000388549142519218
300,0.0560541152954102,0.0000326833524478794
301,0.0550684928894043,0.0000314405320245929
302,0.0541195869445801,0.0000332813890924298
303,0.0531992912292481,0.0000415840551794151
304,0.0523743629455566,0.0000466886648606947
305,0.0514950752258301,0.000046188023445977
306,0.0506863594055176,0.0000339124763234988
307,0.0499029159545898,0.0000301436900609401
308,0.0490894317626953,0.0000484641111269833
309,0.0484299659729004,0.0000687505924710028
310,0.0475864410400391,0.0000495807471913696
311,0.0468297004699707,0.0000447655882181718
312,0.0461406707763672,0.0000502005590783117
313,0.045438289642334,0.0000525549400384651
314,0.0448145866394043,0.0000550514642855469
315,0.0440964698791504,0.000055118539208099
316,0.0433731079101563,0.00006072985017705
317,0.0427379608154297,0.0000592804676163479
318,0.0421724319458008,0.0000503046252430674
319,0.0414338111877441,0.0000588744256472567
320,0.0408549308776856,0.0000502277275603862
321,0.040337085723877,0.0000433869411112897
322,0.0397686958312988,0.0000446435208299889
323,0.0391669273376465,0.0000345254470428863
324,0.0384521484375,0.0000429742461873247
325,0.0379724502563477,0.000046495902035709
326,0.0374312400817871,0.0000417252948805497
327,0.0369172096252441,0.0000383742831725635
328,0.0362968444824219,0.0000551350374429753
329,0.0357484817504883,0.0000707681607455827
330,0.0351829528808594,0.0000555110956156011
331,0.0346412658691406,0.0000531422123724885
332,0.0340456962585449,0.0000483772388767402
333,0.0335617065429687,0.000039998935826548
334,0.0330533981323242,0.000031387151706975
335,0.0324907302856445,0.0000396814761048936
336,0.0320539474487305,0.0000511317534129625
337,0.0315861701965332,0.0000451499577761297
338,0.0310244560241699,0.0000412381445031029
339,0.0305953025817871,0.0000429656475678373
340,0.0301308631896973,0.0000385199138436689
341,0.0296454429626465,0.0000367481850147217
342,0.0291500091552734,0.000049396969522624
343,0.0287103652954102,0.0000601202597439776
344,0.0283784866333008,0.0000409108497215303
345,0.0278444290161133,0.0000531379336114209
346,0.027407169342041,0.00005646947946682
347,0.0269975662231445,0.0000398651264203498
348,0.0265793800354004,0.0000377801303279236
349,0.026209831237793,0.0000355771332146593
350,0.0258193016052246,0.0000354121824163421
351,0.0253944396972656,0.000061323186627536
352,0.0250129699707031,0.0000554086008907664
353,0.0245981216430664,0.0000583575437350539
354,0.0242729187011719,0.0000507322019941937
355,0.0238857269287109,0.000066974830116575
356,0.0234227180480957,0.0000661825240054988
357,0.0230545997619629,0.0000564996700555433
358,0.0226821899414062,0.0000496071092619002
359,0.0223178863525391,0.0000548424924557872
360,0.0220508575439453,0.0000605076104468432
361,0.0216021537780762,0.0000591268462441336
362,0.0213241577148437,0.0000614454219672619
363,0.0210189819335937,0.000063291937985488
364,0.0205507278442383,0.0000487132976071554
365,0.0202531814575195,0.0000513292554416918
366,0.0199565887451172,0.0000592756729748745
367,0.0196986198425293,0.000056842709425977
368,0.0192475318908691,0.0000505368658448078
369,0.0189900398254395,0.0000538034194908233
370,0.0186824798583984,0.000060122150704701
371,0.0183658599853516,0.0000676504053152779
372,0.0180954933166504,0.0000788801662555553
373,0.0178608894348145,0.000061371369006379
374,0.017547607421875,0.000060897164519205
375,0.0172157287597656,0.0000663489391795861
376,0.0170321464538574,0.0000734499502875364
377,0.0167942047119141,0.0000834778318176998
378,0.0164699554443359,0.0000806475293239269
379,0.0160784721374512,0.0000799054452470005
380,0.0159473419189453,0.000115219093098447
381,0.0155758857727051,0.000088198118938353
382,0.015467643737793,0.0000711063177279709
383,0.0153207778930664,0.0000707938595792017
384,0.0149917602539062,0.0000619723224666595
385,0.0147514343261719,0.0000561292227537619
386,0.0145754814147949,0.0000495624000896946
387,0.0143561363220215,0.0000618456139779213
388,0.0140295028686523,0.0000756955521888139
389,0.0137443542480469,0.0000868157969127293
390,0.0136470794677734,0.0000996920425792534
391,0.0133910179138184,0.0000697161364841349
392,0.0133295059204102,0.0000711382871198064
393,0.0130629539489746,0.0000739712613083039
394,0.0126538276672363,0.0000515337222522976
395,0.012392520904541,0.0000349167244701821
396,0.0122509002685547,0.00005016544467864
397,0.0121736526489258,0.0000703023583040394
398,0.0119500160217285,0.0000465203465471688
399,0.0117254257202148,0.0000445185651386131
400,0.0116653442382812,0.0000694039718911308
401,0.011505126953125,0.000101652467034466
402,0.0113091468811035,0.00009039554827578
403,0.0110654830932617,0.0000638979584175748
404,0.0109319686889648,0.0000629497292736406
405,0.0107827186584473,0.000052573324021674
406,0.0106167793273926,0.0000725121799742963
407,0.0104889869689941,0.0000679120580802152
408,0.0102095603942871,0.000073508743676575
409,0.0102548599243164,0.0000732236207833706
410,0.00991487503051758,0.0000666122907298246
411,0.00982904434204102,0.0000545692160511977
412,0.00972223281860352,0.0000575927701831217
413,0.00959396362304688,0.0000542945642041771
414,0.00941944122314453,0.0000509892566317223
415,0.00924348831176758,0.0000559598422535474
416,0.00920534133911133,0.0000595120664700992
417,0.00897216796875,0.0000738251109066168
418,0.00882387161254883,0.0000707938595792017
419,0.00874710083007813,0.0000669663422979549
420,0.00864601135253906,0.000065692863843134
421,0.00854635238647461,0.000044657524643811
422,0.00838184356689453,0.0000583526732601011
423,0.00817584991455078,0.000072109698263904
424,0.00813865661621094,0.0000550194459079103
425,0.00806760787963867,0.0000527805103379124
426,0.00797653198242188,0.0000455385727365274
427,0.00783157348632813,0.0000587168377958634
428,0.00774097442626953,0.0000456968252209127
429,0.00766420364379883,0.0000373709239649114
430,0.00759506225585938,0.0000342136891404686
431,0.00748825073242188,0.0000409164071282966
432,0.00733041763305664,0.0000519303906936435
433,0.00729656219482422,0.0000486689353071327
434,0.00724649429321289,0.0000572542249870267
435,0.00714445114135742,0.000079385868781919
436,0.00692987442016602,0.0000628141336799801
437,0.00696325302124023,0.0000613565476890086
438,0.00684595108032227,0.0000470500808088074
439,0.00672435760498047,0.0000426975658522103
440,0.00671005249023438,0.0000559506994013696
441,0.0066685676574707,0.0000577081323331409
442,0.00647974014282227,0.0000546628864572411
443,0.00638151168823242,0.0000362607931748514
444,0.00636959075927734,0.0000380992591007961
445,0.00616598129272461,0.0000373435348475771
446,0.00617742538452148,0.000070459043632649
447,0.00615930557250977,0.0000836777887809802
448,0.00605869293212891,0.0000519205382874153
449,0.00597858428955078,0.0000411436144945344
450,0.00594758987426758,0.0000420557127849956
451,0.0058903694152832,0.0000642987989046785
452,0.00591373443603516,0.0000850803639590872
453,0.00581502914428711,0.0000713011080505431
454,0.00568723678588867,0.0000626782447449525
455,0.0057215690612793,0.0000587081243032532
456,0.00572109222412109,0.0000617168033117807
457,0.00552129745483398,0.0000502480942818668
458,0.00540924072265625,0.000052333828519911
459,0.00547409057617188,0.0000576490010938264
460,0.00541543960571289,0.0000593082688931889
461,0.00536727905273438,0.0000757931125503714
462,0.00530481338500977,0.0000625256985212555
463,0.00523662567138672,0.0000550297764523052
464,0.00517368316650391,0.0000481888716126631
465,0.00512838363647461,0.0000625220619319297
466,0.00504493713378906,0.0000546816012833954
467,0.00501203536987305,0.0000546295998249131
468,0.00494384765625,0.0000667435768391521
469,0.00495433807373047,0.0000673168430007202
470,0.00491619110107422,0.0000811268045061544
471,0.00495243072509766,0.0000683991282540936
472,0.00486516952514648,0.0000774959411161778
473,0.00472307205200195,0.0000727172757747965
474,0.00464534759521484,0.0000808572981473824
475,0.00461912155151367,0.0000813199605053456
476,0.00462675094604492,0.0000516769176526693
477,0.00479412078857422,0.0000488507974409266
478,0.00460004806518555,0.0000788441265194686
479,0.00456762313842773,0.0000808165133317866
480,0.00458335876464844,0.00007110951531393
481,0.00440454483032227,0.0000525300573498551
482,0.00446414947509766,0.0000871373428430733
483,0.00443124771118164,0.0000790155285624016
484,0.00431919097900391,0.0000570154491152344
485,0.00452852249145508,0.0000534621434957405
486,0.00440645217895508,0.0000575414238771022
487,0.00398969650268555,0.0000491836205767789
488,0.00420331954956055,0.0000643164774947969
489,0.00405550003051758,0.0000585258125421132
490,0.0041499137878418,0.0000559273275441874
491,0.00413703918457031,0.0000578920372420356
492,0.00409078598022461,0.0000431023602442811
493,0.00400686264038086,0.000048245459014423
494,0.00403738021850586,0.0000660931392250011
495,0.0040135383605957,0.0000773358723934681
496,0.00401449203491211,0.0000990330051880098
497,0.00385046005249023,0.0000767974333381136
498,0.00391626358032227,0.0000501858366761448
499,0.00385189056396484,0.0000528644478347477
500,0.00387907028198242,0.0000692810095813177
501,0.0037689208984375,0.0000552164252194788
502,0.00383567810058594,0.0000579293369189279
503,0.00386333465576172,0.0000579067636688415
504,0.0037388801574707,0.0000626836859584254
505,0.00365447998046875,0.0000639833027152819
506,0.00368165969848633,0.0000707569145708356
507,0.00367259979248047,0.0000761761351801647
508,0.00362253189086914,0.0000690574794554967
509,0.00354814529418945,0.0000512472402984498
510,0.00361871719360352,0.0000580714445087799
511,0.00355720520019531,0.0000701469436986886
512,0.0034489631652832,0.0000845562843572992
513,0.00336980819702148,0.0000502526190990107
514,0.00346469879150391,0.0000409892782477187
515,0.00341892242431641,0.0000469339553808757
516,0.00348567962646484,0.0000574326554292501
517,0.0034637451171875,0.0000532512046182081
518,0.00336313247680664,0.0000670562585115316
519,0.00345849990844727,0.0000626165446135691
520,0.00344276428222656,0.0000513912339520162
521,0.00334787368774414,0.0000643624191038547
522,0.00324058532714844,0.0000721333431142833
523,0.00332212448120117,0.0000497158479652681
524,0.0033106803894043,0.0000588744256472567
525,0.00321578979492187,0.0000579930833834395
526,0.00329399108886719,0.0000596732698208876
527,0.00317096710205078,0.0000503373841110102
528,0.00317096710205078,0.0000400692196794937
529,0.00321197509765625,0.0000308970609661892
530,0.00312566757202148,0.0000378064513972816
531,0.0030980110168457,0.0000458793177849859
532,0.0030975341796875,0.0000526241169052826
533,0.00315523147583008,0.0000634175493947842
534,0.00301885604858398,0.0000568896905973215
535,0.00293493270874023,0.0000489565717023477
536,0.0031132698059082,0.0000447935151439224
537,0.00303792953491211,0.0000388636910566988
538,0.00302982330322266,0.0000328343156181773
539,0.00296449661254883,0.0000555510173004559
540,0.00296497344970703,0.0000596246685726022
541,0.00299310684204102,0.0000580548016196337
542,0.00297927856445312,0.0000464861206319959
543,0.00293684005737305,0.0000426022713104212
544,0.00287723541259766,0.0000532063524976667
545,0.00286102294921875,0.0000598948091599397
546,0.00287008285522461,0.0000578655202293625
547,0.00287246704101562,0.0000423486701687136
548,0.00285959243774414,0.0000512793969982193
549,0.00279951095581055,0.0000481369413905992
550,0.00284337997436523,0.0000456183906390195
551,0.00287294387817383,0.0000629497292736406
552,0.00272035598754883,0.0000675831516896308
553,0.00285673141479492,0.0000599384497533994
554,0.00265216827392578,0.0000702570645572182
555,0.00272274017333984,0.000063635879499257
556,0.00266265869140625,0.0000655768123932374
557,0.00276565551757812,0.0000481109552598169
558,0.00276041030883789,0.0000388388182918747
559,0.00269174575805664,0.0000477539975065742
560,0.00264406204223633,0.0000532800181860775
561,0.00263166427612305,0.0000633098977310286
562,0.00253200531005859,0.0000504456754891899
563,0.00263357162475586,0.0000501155626422167
564,0.00259208679199219,0.000062987643731203
565,0.00251340866088867,0.0000562677949071161
566,0.00256633758544922,0.0000421239143855243
567,0.00255918502807617,0.0000538625511075916
568,0.00249147415161133,0.0000442239151288639
569,0.00249624252319336,0.0000352940034696511
570,0.00252771377563477,0.0000303602447048345
571,0.0024724006652832,0.0000374704209458869
572,0.00243186950683594,0.0000528450894766371
573,0.00243759155273437,0.0000441608878338808
574,0.00249481201171875,0.0000474698515953036
575,0.0024256706237793,0.0000450390302456302
576,0.00245285034179687,0.0000389433231145771
577,0.0024104118347168,0.0000323433059116635
578,0.00236606597900391,0.0000423634325836969
579,0.00235700607299805,0.0000418307418388947
580,0.00234794616699219,0.0000410024506124604
581,0.00236225128173828,0.000039480417786318
582,0.0023341178894043,0.0000353414833110968
583,0.00223493576049805,0.0000448150831215348
584,0.00232219696044922,0.0000411221943442976
585,0.0023646354675293,0.000047650325528543
586,0.00232410430908203,0.0000454786173786029
587,0.00228738784790039,0.0000350053364557811
588,0.00223493576049805,0.000033609409688389
589,0.00218343734741211,0.000056251628903577
590,0.00217676162719727,0.0000600218476936548
591,0.00223493576049805,0.0000492009536046444
592,0.00233030319213867,0.0000341046922978328
593,0.00223731994628906,0.0000256546589390673
594,0.0021519660949707,0.0000256718249891239
595,0.00223779678344727,0.0000293109439060268
596,0.00223493576049805,0.0000382399915035854
597,0.00220775604248047,0.0000402489825227194
598,0.0021820068359375,0.0000359688227951929
599,0.00219345092773437,0.0000340713413292671
600,0.00216913223266602,0.0000505098636437556
601,0.00208282470703125,0.0000441274082231875
602,0.00208759307861328,0.0000352149971726165
603,0.00215482711791992,0.0000512949137071999
604,0.0020909309387207,0.0000457689160004746
605,0.00209140777587891,0.0000320316048682795
606,0.00212860107421875,0.0000412925561348386
607,0.0020604133605957,0.0000322412096656995
608,0.00204181671142578,0.0000294936406506037
609,0.00211906433105469,0.0000234942124543019
610,0.00204277038574219,0.0000248264615019487
611,0.00203466415405273,0.0000201728043569684
612,0.0020298957824707,0.0000254270927579783
613,0.0020747184753418,0.0000333138246053859
614,0.00213718414306641,0.0000414718136144474
615,0.00211668014526367,0.0000392580643380833
616,0.00200223922729492,0.0000274051760019604
617,0.00206422805786133,0.0000321007398218285
618,0.00193691253662109,0.0000481133182153086
619,0.0019078254699707,0.0000412801648568571
620,0.00197696685791016,0.0000391159085983743
621,0.00196123123168945,0.0000394631365520983
622,0.00198221206665039,0.0000387266931614818
623,0.00195837020874023,0.0000435255955018769
624,0.00197982788085937,0.0000402772185095818
625,0.00202655792236328,0.0000291056261104726
626,0.00191831588745117,0.0000235600506191262
627,0.0019073486328125,0.0000330835311018165
628,0.00197362899780273,0.0000355499610623183
629,0.00200891494750977,0.0000345698718269193
630,0.00194692611694336,0.0000342551995402692
631,0.00191593170166016,0.0000383527984619262
632,0.00189828872680664,0.0000523501185301168
633,0.00188016891479492,0.0000466460329197887
634,0.00197076797485352,0.0000338898403372253
635,0.00188064575195312,0.0000334992951440784
636,0.00181245803833008,0.0000479582986973685
637,0.00188112258911133,0.0000432872551604704
638,0.00191068649291992,0.0000422546066887148
639,0.00189590454101562,0.0000490308257166988
640,0.00186252593994141,0.0000531486298682195
641,0.00177526473999023,0.000048094411320693
642,0.00174903869628906,0.0000476479396123345
643,0.00177335739135742,0.0000464163684669788
644,0.00177764892578125,0.0000556164677117284
645,0.00176286697387695,0.0000451512167502053
646,0.00174665451049805,0.0000491084400952488
647,0.00186729431152344,0.0000406655719435818
648,0.00177383422851562,0.0000556082906231432
649,0.00173664093017578,0.0000593168942262345
650,0.00181055068969727,0.0000535503202109011
651,0.00177335739135742,0.0000452995300292969
652,0.00174427032470703,0.0000447782844344906
653,0.00178050994873047,0.000035440262176632
654,0.00174713134765625,0.0000425368412762205
655,0.00188159942626953,0.0000211776904975915
656,0.00203657150268555,0.0000282684414558928
657,0.00134372711181641,0.0000424585937797246
658,0.00164985656738281,0.0000631606771310402
659,0.00173711776733398,0.0000597437189762058
660,0.00172281265258789,0.0000548901500571666
661,0.00172281265258789,0.0000451058715453547
662,0.00170373916625977,0.0000406208168639127
663,0.00170803070068359,0.0000494199791053525
664,0.00176906585693359,0.0000509401813011682
665,0.00170469284057617,0.0000490679105859255
666,0.00174379348754883,0.0000500679016113281
667,0.00165748596191406,0.0000420056730080395
668,0.00172328948974609,0.0000345517797358499
669,0.00167226791381836,0.0000296148123344283
670,0.00168848037719727,0.0000326807435193222
671,0.00168323516845703,0.0000291314919268209
672,0.00171232223510742,0.0000359316653188456
673,0.0016322135925293,0.0000441904832689596
674,0.00165653228759766,0.0000455710156202466
675,0.00164175033569336,0.0000384586239842018
676,0.00164556503295898,0.0000504276430755702
677,0.00166893005371094,0.0000471044160542595
678,0.00166177749633789,0.0000306727146755098
679,0.00158548355102539,0.0000416414275973933
680,0.00158929824829102,0.0000507960280822211
681,0.00166749954223633,0.0000609764546992153
682,0.00162124633789062,0.000029885652391247
683,0.00166702270507812,0.0000420644974093265
684,0.00162839889526367,0.0000384704464941596
685,0.00167274475097656,0.0000363891115907289
686,0.00159215927124023,0.0000343637189985954
687,0.00162172317504883,0.0000307809373731852
688,0.00157976150512695,0.0000348971833487167
689,0.00160789489746094,0.0000561626327070432
690,0.00166654586791992,0.000039292076252847
691,0.00168180465698242,0.0000375749496029569
692,0.00163841247558594,0.0000487447936541101
693,0.00159025192260742,0.0000394940934006665
694,0.00162076950073242,0.0000397516062683208
695,0.00159120559692383,0.0000449645051350643
696,0.00159645080566406,0.0000456158984436209
697,0.00163698196411133,0.0000319400820020068
698,0.00159931182861328,0.0000374643523701007
699,0.00163078308105469,0.000047796830480858
700,0.00161218643188477,0.0000553223585750249
701,0.00156259536743164,0.000040196693659037
702,0.00158071517944336,0.0000422821755186659
703,0.00155973434448242,0.0000303841071239288
704,0.00158500671386719,0.000037191769984217
705,0.00154542922973633,0.0000432465278069616
706,0.00154352188110352,0.0000496929753803415
707,0.00155162811279297,0.0000468333231808628
708,0.00154542922973633,0.0000488891815871288
709,0.00152301788330078,0.0000358413786402728
710,0.00159025192260742,0.0000334534487090881
711,0.00153875350952148,0.0000325927877247525
712,0.00153636932373047,0.0000331461852969795
713,0.00148630142211914,0.0000306940193555525
714,0.00151491165161133,0.0000307143839172133
715,0.00152254104614258,0.000035944318984887
716,0.00151395797729492,0.0000356696824258566
717,0.0015106201171875,0.0000278827444803999
718,0.00154304504394531,0.0000295056838856974
719,0.00145053863525391,0.0000364647947202781
720,0.00143623352050781,0.0000335221948484778
721,0.00154638290405273,0.0000420759822276304
722,0.00149917602539062,0.0000469351665015876
723,0.00154352188110352,0.0000561403616140506
724,0.00148677825927734,0.00004611658783191
725,0.00156688690185547,0.000040023087630736
726,0.00148963928222656,0.0000379437756806903
727,0.00152492523193359,0.0000425735745949964
728,0.00146341323852539,0.0000420476022720406
729,0.00148916244506836,0.0000429504304086677
730,0.0015110969543457,0.0000475129407281651
731,0.001434326171875,0.000038539830498238
732,0.00148391723632812,0.0000414999024654849
733,0.00142383575439453,0.0000428158879186343
734,0.00147771835327148,0.0000317723508030031
735,0.00150775909423828,0.0000297134983087833
736,0.00146102905273437,0.0000359625008296295
737,0.00144147872924805,0.000051073912044433
738,0.00148820877075195,0.0000571250119471433
739,0.00151348114013672,0.0000394018712236664
740,0.00152349472045898,0.0000384490155181252
741,0.00146722793579102,0.0000529385892962361
742,0.00145769119262695,0.0000420367858205874
743,0.0014948844909668,0.0000476980187899349
744,0.00152206420898437,0.000053286419085308
745,0.00150918960571289,0.0000554044971579145
746,0.00143861770629883,0.0000407932725722043
747,0.00146198272705078,0.0000470766525418406
748,0.00147390365600586,0.000057068264738041
749,0.00151491165161133,0.0000341071923058237
750,0.00148677825927734,0.0000397287202349642
751,0.00145483016967773,0.0000545692160511977
752,0.00142288208007812,0.0000533876643853113
753,0.00147724151611328,0.0000473847554072184
754,0.00142860412597656,0.0000480482945963003
755,0.00146913528442383,0.0000458978986771894
756,0.00152111053466797,0.0000433869411112897
757,0.00147533416748047,0.0000463832913563048
758,0.00144529342651367,0.0000408211320752449
759,0.00142240524291992,0.000032363510871493
760,0.0014033317565918,0.000028260396936249
761,0.00143194198608398,0.0000484746660521564
762,0.00149059295654297,0.0000321095925121658
763,0.00142765045166016,0.0000376119949642256
764,0.00146102905273437,0.0000441801914532115
765,0.00137138366699219,0.0000423325598447086
766,0.00146389007568359,0.0000402631029913416
767,0.00145530700683594,0.0000561403616140506
768,0.00140523910522461,0.0000455435654536498
769,0.00138425827026367,0.0000520659451606512
770,0.00144481658935547,0.0000385368805322573
771,0.00144243240356445,0.0000346257330696718
772,0.00138950347900391,0.0000326354889529016
773,0.0014495849609375,0.0000379939287514495
774,0.0014491081237793,0.0000603552288892687
775,0.00141668319702148,0.0000412898028388772
776,0.00137090682983398,0.0000441518765899316
777,0.00134515762329102,0.0000472886889010912
778,0.00142002105712891,0.0000657118974793943
779,0.00139284133911133,0.0000537230653373266
780,0.00136947631835937,0.0000458842734252882
781,0.00138759613037109,0.0000472658444129318
782,0.00138235092163086,0.0000503159238136663
783,0.00142240524291992,0.0000445747110238606
784,0.00139665603637695,0.0000521978807312735
785,0.00139045715332031,0.0000466777060804703
786,0.00138950347900391,0.0000383105347781268
787,0.00134706497192383,0.0000394155740905133
788,0.00139713287353516,0.00003695564884493
789,0.00136375427246094,0.0000454373521788467
790,0.00139999389648437,0.0000439880663137391
791,0.00142192840576172,0.0000592622459150526
792,0.0013728141784668,0.0000385117966981054
793,0.00139999389648437,0.0000467738121721416
794,0.00138044357299805,0.0000424371676287205
795,0.00135898590087891,0.000039152947779679
796,0.00139665603637695,0.0000527589663922261
797,0.00137805938720703,0.0000531454212172209
798,0.00139141082763672,0.0000460968619740512
799,0.00132369995117187,0.0000456955812790791
800,0.00141191482543945,0.0000395997398490585
801,0.00138616561889648,0.0000379654918584431
802,0.0014643669128418,0.0000561828714942612
803,0.00144577026367187,0.0000442547528908509
804,0.00139999389648437,0.0000520943231384447
805,0.00139570236206055,0.0000549170686679381
806,0.00134515762329102,0.0000623472561976667
807,0.00137662887573242,0.0000516956138789552
808,0.00139236450195312,0.0000492344468223245
809,0.00141096115112305,0.0000317105673182883
810,0.0014195442199707,0.0000346199868093582
811,0.00131559371948242,0.0000479571134150951
812,0.00139236450195312,0.0000482030246909298
813,0.00138473510742187,0.0000455260885482465
814,0.00130558013916016,0.0000474806275445012
815,0.00140857696533203,0.0000360832164448627
816,0.00145101547241211,0.0000427541088119844
817,0.00139760971069336,0.000047742092638265
818,0.00137853622436523,0.0000449948353274744
819,0.00140237808227539,0.0000490505305445574
820,0.00130414962768555,0.0000591710532381553
821,0.0013885498046875,0.0000379220470671031
822,0.00139665603637695,0.0000496838233980583
823,0.00135707855224609,0.0000495107624153929
824,0.00137472152709961,0.0000503599640179956
825,0.00147676467895508,0.0000428039376310353
826,0.00143289566040039,0.0000418327801257439
827,0.00142574310302734,0.0000349419489111769
828,0.00140857696533203,0.0000401684010680539
829,0.00142812728881836,0.0000404876587753352
830,0.00143909454345703,0.0000358936775558066
831,0.00140571594238281,0.0000605329700791677
832,0.00138711929321289,0.0000507646849440986
833,0.00141191482543945,0.0000558052286592236
834,0.00147151947021484,0.0000469254766606582
835,0.00133562088012695,0.0000452216633587977
836,0.00141572952270508,0.0000419487987631831
837,0.00137948989868164,0.0000429199799047274
838,0.00138950347900391,0.0000383186945575333
839,0.00139093399047852,0.0000307818607135892
840,0.00139522552490234,0.0000456171445583397
841,0.00129604339599609,0.0000489565717023477
842,0.0013737678527832,0.0000473439509601742
843,0.0013737678527832,0.0000391035544082087
844,0.00141000747680664,0.0000394357591103918
845,0.00138568878173828,0.0000571985997726576
846,0.00132179260253906,0.0000604869391815873
847,0.00141429901123047,0.0000461498560981153
848,0.00138616561889648,0.0000387875594358424
849,0.00137615203857422,0.0000495933568864766
850,0.00141477584838867,0.0000449278288341123
851,0.0014195442199707,0.0000621060949522588
852,0.00139522552490234,0.0000608486066472979
853,0.00135993957519531,0.0000570592994933485
854,0.00132179260253906,0.0000499815423140862
855,0.0014185905456543,0.0000606061716324971
856,0.00140380859375,0.0000557206204037368
857,0.00127649307250977,0.0000496208578258655
858,0.00134086608886719,0.0000487786000893394
859,0.00132322311401367,0.0000628177533609512
860,0.00135087966918945,0.0000520845017420077
861,0.00139713287353516,0.0000403378589527336
862,0.00137233734130859,0.0000611802700643474
863,0.00136137008666992,0.0000512394753129167
864,0.00133562088012695,0.0000381901615750786
865,0.00125408172607422,0.0000533312038690239
866,0.00136661529541016,0.0000645634694846921
867,0.00138521194458008,0.0000617996409894101
868,0.00138616561889648,0.0000556777575966654
869,0.00138235092163086,0.0000444610698735811
870,0.00140190124511719,0.0000553069440101133
871,0.00133800506591797,0.0000536976653601751
872,0.00147724151611328,0.0000840925007355588
873,0.00132083892822266,0.0000689536868281416
874,0.00136995315551758,0.0000453007848465442
875,0.0013422966003418,0.0000538952567837587
876,0.00135421752929687,0.0000696394509134635
877,0.0014033317565918,0.0000674551850710526
878,0.00135183334350586,0.0000443189293114845
879,0.0013728141784668,0.0000470355808092411
880,0.00135087966918945,0.0000483055104955549
881,0.0013585090637207,0.0000397966246847623
882,0.00134801864624023,0.0000545421257622173
883,0.00134992599487305,0.0000589564362601802
884,0.00133705139160156,0.0000677947746910445
885,0.00137519836425781,0.0000637287108826705
886,0.00126314163208008,0.0000559567948021395
887,0.00142288208007812,0.0000475249029984843
888,0.00137948989868164,0.0000427481254505652
889,0.00134563446044922,0.0000428729377612858
890,0.00140094757080078,0.0000598748757052024
891,0.00136327743530273,0.0000450327193413654
892,0.00132465362548828,0.0000491905545208313
893,0.00145673751831055,0.000058062634161712
894,0.00129175186157227,0.0000490145922632555
895,0.00131511688232422,0.0000730915308241261
896,0.00126838684082031,0.0000635053295506496
897,0.00136375427246094,0.0000478752580703802
898,0.00131464004516602,0.0000417933556292733
899,0.00140237808227539,0.0000650546402728113
900,0.00141096115112305,0.0000500542758384234
901,0.00138425827026367,0.0000429795367904271
902,0.00145339965820312,0.0000585190133704467
903,0.00138092041015625,0.000058641277845929
904,0.00128459930419922,0.0000722309930481397
905,0.00140190124511719,0.0000499109806370908
906,0.00136852264404297,0.0000726734871407406
907,0.00147867202758789,0.0000646321063036248
908,0.00139331817626953,0.0000583760478338971
909,0.00133895874023437,0.00007109512504457
910,0.00130748748779297,0.0000696018931423097
911,0.00137567520141602,0.0000583741003102403
912,0.00128364562988281,0.0000612805321747488
913,0.00119781494140625,0.0000674888840215841
914,0.00136899948120117,0.0000542327592760679
915,0.00134420394897461,0.0000591672104629052
916,0.00132226943969727,0.0000900704876183899
917,0.00143957138061523,0.000090563917873446
918,0.00144243240356445,0.0000731785815935169
919,0.00139999389648437,0.0000558734334351808
920,0.00147438049316406,0.0000576055996085125
921,0.0012969970703125,0.0000742535134240996
922,0.00146150588989258,0.000069487461974895
923,0.00138092041015625,0.0000596894614430196
924,0.00146484375,0.0000615674146226242
925,0.00137996673583984,0.0000627561903906875
926,0.00143957138061523,0.0000646883693012681
927,0.00132369995117187,0.0000784697808374547
928,0.0014190673828125,0.0000492921403043769
929,0.00145626068115234,0.0000456121598952031
930,0.00129032135009766,0.0000563586422752024
931,0.0014948844909668,0.0000785001996931376
932,0.00138950347900391,0.0000748026655874141
933,0.00140571594238281,0.0000905488527618266
934,0.00138998031616211,0.0000670969356511607
935,0.00138092041015625,0.0000608243131743946
936,0.00152873992919922,0.000081639479103357
937,0.00148868560791016,0.0000790831228312435
938,0.00150632858276367,0.0000798912163092225
939,0.00139284133911133,0.000062290703732088
940,0.00133895874023437,0.0000594327354915674
941,0.00143241882324219,0.0000708275751477066
942,0.00145816802978516,0.0000946975066170228
943,0.00133609771728516,0.0000890498978368766
944,0.00143337249755859,0.0000938339928163761
945,0.00149202346801758,0.000111077473522994
946,0.00146913528442383,0.000107393213534108
947,0.00150346755981445,0.0000822277993543266
948,0.00143766403198242,0.0000962998583936013
949,0.00154209136962891,0.0000926218590532124
950,0.00144100189208984,0.0000977713867293717
951,0.00154447555541992,0.0000801256706668662
952,0.00153589248657227,0.0000996555437294358
953,0.00160837173461914,0.000103852024154439
954,0.00157070159912109,0.000136031537528148
955,0.001678466796875,0.0000893328677514976
956,0.00167703628540039,0.000100688318292952
957,0.0015406608581543,0.0000774093395051976
958,0.00155162811279297,0.0000859722982572476
959,0.00146818161010742,0.000101773181197902
960,0.00160026550292969,0.00009283763537139
961,0.00150632858276367,0.000131406493020173
962,0.00150871276855469,0.000114238082423243
963,0.00178432464599609,0.000113240542861854
964,0.00151920318603516,0.000131800412760594
965,0.00177288055419922,0.000143289367688338
966,0.00166940689086914,0.000182772373175269
967,0.00156879425048828,0.000178879407975807
968,0.0014491081237793,0.000139823095765009
969,0.00137662887573242,0.000129682175068447
970,0.00153970718383789,0.000132643036024502
971,0.00152444839477539,0.000159392048105685
972,0.00142288208007812,0.00014446513393059
973,0.00156688690185547,0.000125772975427699
974,0.00157070159912109,0.000123588243864757
975,0.00163507461547852,0.000167930647047742
976,0.00140905380249023,0.000132886226259997
977,0.0014653205871582,0.000136352083569127
978,0.00176763534545898,0.000184155473553487
979,0.00157451629638672,0.000173448164433196
980,0.00154924392700195,0.000182812177688873
981,0.00140285491943359,0.000162079748784385
982,0.00166463851928711,0.000153958601310892
983,0.00137519836425781,0.000174269466865546
984,0.0014653205871582,0.000154271375685815
985,0.00138568878173828,0.00015818924497127
986,0.001434326171875,0.00014938022796876
987,0.00156068801879883,0.000114102658408468
988,0.00156736373901367,0.000154548212082705
989,0.00131082534790039,0.000210932408156574
990,0.00143861770629883,0.00019619748662467
991,0.00126838684082031,0.000264468864982525
992,0.00134992599487305,0.000202304872852291
993,0.00152444839477539,0.000189082618785265
994,0.00154733657836914,0.000183522226980971
995,0.00132083892822266,0.000166235035472877
996,0.00132226943969727,0.000172823048249425
997,0.00132131576538086,0.000190996943661704
998,0.00152730941772461,0.000227198770449631
999,0.00121927261352539,0.000202016945472292
1000,0.00124359130859375,0.000222290006854386
1001,0.001434326171875,0.000164411350068641
1002,0.00168514251708984,0.000236145629103114
1003,0.000884532928466797,0.000190123532018694
1004,0.00155353546142578,0.000247595599472815
1005,0.00152778625488281,0.000258134112102008
1006,0.00123023986816406,0.000263373009085627
1007,0.00105524063110352,0.000259903810072263
1008,0.00140953063964844,0.000201033098190278
1009,0.00106477737426758,0.000146437925683213
1010,0.000988483428955078,0.000180866540391994
1011,0.00188398361206055,0.000243581190498895
1012,0.0012054443359375,0.000301131631924592
1013,0.00127363204956055,0.000248753656314481
1014,0.00133228302001953,0.000179371916893139
1015,0.00119113922119141,0.000173924678470215
1016,0.00144720077514648,0.00022376622021969
1017,0.0013279914855957,0.000282184478895675
1018,0.00101089477539062,0.0002705747318467
1019,0.00103759765625,0.000296719943904057
1020,0.00119161605834961,0.000265731384382143
1021,0.00134468078613281,0.00027161474965291
1022,0.00137615203857422,0.000307603951199669
1023,0.001251220703125,0.000334286994986996
1024,0.00159740447998047,0.000290180387808937
1025,0.00184011459350586,0.000370880005791816
1026,0.0012059211730957,0.000201195900024105
1027,0.00122833251953125,0.00023732890022245
1028,0.00174808502197266,0.00024389836092963
1029,0.00132894515991211,0.000260777180445233
1030,0.00110387802124023,0.000317050457212651
1031,0.00141525268554687,0.00035433589232584
1032,0.00160455703735352,0.000320377798955055
1033,0.00160694122314453,0.000356025922647059
1034,0.00147914886474609,0.000452142213341899
1035,0.00126791000366211,0.000265484842144697
1036,0.00160551071166992,0.000260567838531068
1037,0.00139331817626953,0.000310657853263891
1038,0.00145196914672852,0.000324052863382971
1039,0.00165700912475586,0.000305515338818777
1040,0.00152063369750977,0.00027620357634309
1041,0.00119400024414062,0.000367193097087123
1042,0.00064849853515625,0.000434775089921773
1043,0.00152730941772461,0.000492302902823506
1044,0.00155401229858398,0.000356720090146958
1045,0.00167131423950195,0.000453002327312376
1046,0.001800537109375,0.000437993034711239
1047,0.00200986862182617,0.000408279547541807
1048,0.00114059448242187,0.000490229415678495
1049,0.00251865386962891,0.000488176930727952
1050,0.00120878219604492,0.000550745059914366
1051,0.00119590759277344,0.000501948065305509
1052,0.00209474563598633,0.000362737394674016
1053,0.00161838531494141,0.000516282317378773
1054,0.00124359130859375,0.00047517869548303
1055,0.00113773345947266,0.000501585548419444
1056,0.00137662887573242,0.000399397164152873
1057,0.000903606414794922,0.000387994282222632
1058,0.0021367073059082,0.000513838447280357
1059,0.00114202499389648,0.000578401703922243
1060,0.00110816955566406,0.000506766415570545
1061,0.00184965133666992,0.000727157748867423
1062,0.00272178649902344,0.000654251164647348
1063,0.00193881988525391,0.000799377070917127
1064,0.000321388244628906,0.000778104739088146
1065,0.000598430633544922,0.000649608335620326
1066,0.000661373138427734,0.000834904691129011
1067,0.00200128555297852,0.000872940772818327
1068,0.00169610977172852,0.00104889608585667
1069,0.00177192687988281,0.000835758296974436
1070,0.00190114974975586,0.000875952844713303
1071,0.00118684768676758,0.000803806591251582
1072,0.00112819671630859,0.000922841420193601
1073,0.00176477432250977,0.000825650665104845
1074,0.00138664245605469,0.000803553098751473
1075,0.00157546997070312,0.000866095910504059
1076,0.00121402740478516,0.000800214019940325
1077,0.000823974609375,0.000771983896375136
1078,0.00124406814575195,0.0010567193416248
1079,0.00138521194458008,0.00125461211791613
1080,0.00189352035522461,0.00100563407893258
1081,0.000853061676025391,0.000844281360416255
1082,0.00303506851196289,0.00107132565445421
1083,0.000518321990966797,0.0012203931414888
1084,0.00365304946899414,0.00137121255202351
1085,-0.000302314758300781,0.00152866109881558
1086,0.00300359725952148,0.00126723760871498
1087,0.00246572494506836,0.00141648087586357
1088,0.000947475433349609,0.0013617560946738
1089,0.00023651123046875,0.00145783336334182
1090,0.000128746032714844,0.00170826896952318
1091,0.00121021270751953,0.00205115814378741
1092,0.00176000595092773,0.00240818306449709
1093,0.00109100341796875,0.00244240740275978
1094,0.000124454498291016,0.0020352044493373
1095,0.00373172760009766,0.00259928444337052
1096,0.00432348251342773,0.00181242686362529
1097,0.000272274017333984,0.00190875192518456
1098,0.00214529037475586,0.00209329231440949
1099,0.00514459609985352,0.00252139658224741
1100,0.00184440612792969,0.00226971602221192
