Wavelength (nm),Absorbance (AU),Std.Dev.
190,0.247184753417969,0.0000942595021290678
191,0.240158081054687,0.0000615563343715451
192,0.234111309051514,0.0000350945345667545
193,0.228920459747314,0.0000371458900745056
194,0.224593162536621,0.0000362952645960768
195,0.220503807067871,0.0000375212067359997
196,0.217073440551758,0.0000341230214363381
197,0.213890075683594,0.0000238203905733845
198,0.210592269897461,0.000039750176277268
199,0.207279205322266,0.0000435778032638392
200,0.204037666320801,0.0000378380125118534
201,0.20093297958374,0.0000371435945914053
202,0.198183059692383,0.0000355347675745036
203,0.195633888244629,0.0000316935333260484
204,0.193279266357422,0.0000426742616812957
205,0.190909862518311,0.0000395738933267138
206,0.188429832458496,0.0000288791731447729
207,0.18601131439209,0.0000355139659526166
208,0.183716297149658,0.0000341854332773384
209,0.181247711181641,0.0000488019012276175
210,0.178846836090088,0.000043680730276426
211,0.176382541656494,0.0000315650351780612
212,0.174005508422852,0.0000413503330014778
213,0.171595096588135,0.0000321122478433684
214,0.169288635253906,0.0000407193527054509
215,0.167069435119629,0.0000351705791511889
216,0.164798736572266,0.0000399456081546112
217,0.162761688232422,0.0000352262946352783
218,0.160676002502441,0.0000331787529852827
219,0.158642768859863,0.0000309586318401199
220,0.15670919418335,0.0000300847027043848
221,0.154798030853271,0.0000349736570442221
222,0.152931213378906,0.0000287716997911133
223,0.150986671447754,0.0000250583484381137
224,0.149127006530762,0.0000308989006792496
225,0.147285938262939,0.000035635403426234
226,0.145513534545898,0.0000319017957376055
227,0.143592834472656,0.0000318581111141217
228,0.141785621643066,0.000041989431084568
229,0.139896392822266,0.0000471851992677802
230,0.138021469116211,0.0000444470041632563
231,0.13615083694458,0.0000259252113705982
232,0.134293556213379,0.0000326407138357623
233,0.132498264312744,0.0000278541886263299
234,0.130661964416504,0.0000297206713818434
235,0.128842353820801,0.000044688063187141
236,0.127105712890625,0.0000288082265224327
237,0.125471591949463,0.0000316253056088936
238,0.12387228012085,0.0000273776792496847
239,0.122452259063721,0.0000337730668264073
240,0.120969772338867,0.0000295287931283242
241,0.119588851928711,0.0000291139251964234
242,0.118261814117432,0.0000408267016945463
243,0.116967678070068,0.0000280281295961105
244,0.11582088470459,0.0000271750119803136
245,0.114616870880127,0.0000336263183827667
246,0.113462924957275,0.0000446002085153771
247,0.112430572509766,0.0000488566151590862
248,0.111441135406494,0.000044742725950035
249,0.110462188720703,0.0000465447782207963
250,0.109547138214111,0.0000405641029207329
251,0.108684062957764,0.000033667708794977
252,0.107786178588867,0.0000368200426375401
253,0.106978893280029,0.0000301427471719343
254,0.106261253356934,0.0000385494163286308
255,0.105367660522461,0.0000502774983142572
256,0.104617118835449,0.0000374157683297294
257,0.103896141052246,0.0000436338569384361
258,0.103108406066895,0.0000515524704104296
259,0.102272987365723,0.0000577986827397449
260,0.101492404937744,0.0000443842936638645
261,0.100745677947998,0.0000505705983210378
262,0.0998892784118652,0.0000527417248994807
263,0.0990366935729981,0.0000518087467384355
264,0.0981593132019043,0.0000468951830030222
265,0.0973773002624512,0.0000474638638997242
266,0.0964808464050293,0.0000490713858555222
267,0.0956034660339356,0.0000408976478538714
268,0.094606876373291,0.0000442162023278643
269,0.0937051773071289,0.00005238593872178
270,0.0928111076354981,0.0000517593501785898
271,0.0917959213256836,0.0000348017632551461
272,0.0907773971557617,0.0000398986208432939
273,0.0897350311279297,0.0000568527086712961
274,0.0887713432312012,0.0000555285009043615
275,0.0878520011901856,0.0000385354054645822
276,0.0868139266967773,0.0000485320914850827
277,0.0858840942382813,0.0000519752502441406
278,0.0848197937011719,0.0000506705392028245
279,0.083855152130127,0.0000459610175225195
280,0.0829029083251953,0.0000379452737471252
281,0.0819602012634277,0.0000441158132074695
282,0.0810561180114746,0.000047731375718087
283,0.080012321472168,0.000052492169757582
284,0.0790181159973145,0.0000424525687677662
285,0.0780787467956543,0.0000351244866575296
286,0.0771422386169434,0.0000381082099429496
287,0.0762639045715332,0.0000385781595285944
288,0.075340747833252,0.0000446269652027479
289,0.0743222236633301,0.0000481829732697467
290,0.0734243392944336,0.0000426049397896791
291,0.0724997520446777,0.0000333129714438618
292,0.0716128349304199,0.0000399761913875341
293,0.0707650184631348,0.0000424324792159979
294,0.069798469543457,0.0000312492094717582
295,0.0689663887023926,0.0000402228465876835
296,0.0682191848754883,0.0000479594839503485
297,0.0673289299011231,0.0000412684585669088
298,0.0665392875671387,0.000043238640662398
299,0.0656766891479492,0.0000352133829534975
300,0.0648632049560547,0.0000346946139594674
301,0.0641660690307617,0.0000405472835552661
302,0.0633993148803711,0.0000339526808145864
303,0.0625205039978027,0.0000327050854257228
304,0.0617928504943848,0.0000407102778215246
305,0.0610547065734863,0.0000541624885005165
306,0.0603604316711426,0.0000418938826172308
307,0.0596332550048828,0.0000314323951238162
308,0.0589008331298828,0.0000432452133827616
309,0.0582976341247559,0.0000516780176179242
310,0.0574784278869629,0.0000469956827423311
311,0.0567936897277832,0.0000382682244180599
312,0.0561428070068359,0.0000282352430399108
313,0.0554256439208984,0.0000439298767392356
314,0.0547680854797363,0.0000475368622585942
315,0.0541720390319824,0.0000406739580385897
316,0.0534453392028809,0.0000465838422463219
317,0.0528721809387207,0.0000582376118135778
318,0.0521540641784668,0.0000508184042024563
319,0.0516324043273926,0.000044635880534289
320,0.0508799552917481,0.000057512768525871
321,0.0504016876220703,0.0000491269567344873
322,0.0498514175415039,0.0000582639594806897
323,0.0491323471069336,0.0000559943684447325
324,0.048576831817627,0.0000452668925716622
325,0.0479345321655273,0.0000452028044967412
326,0.0473837852478027,0.0000531058319147731
327,0.0467824935913086,0.0000483866379906577
328,0.0462112426757813,0.0000474411037642974
329,0.0456676483154297,0.0000544022926576337
330,0.0450940132141113,0.0000458371732105415
331,0.0445671081542969,0.0000569026785410788
332,0.0438761711120606,0.0000492205903240467
333,0.0433487892150879,0.0000520484740993277
334,0.0428147315979004,0.0000431912875493889
335,0.0422406196594238,0.0000434824769090745
336,0.0417180061340332,0.0000617665192500111
337,0.0411906242370606,0.0000653214696203912
338,0.0406265258789063,0.0000522990595397696
339,0.0400705337524414,0.0000581751104178994
340,0.0396294593811035,0.0000441724710177741
341,0.0390753746032715,0.0000449758813541293
342,0.0384902954101562,0.0000609820477576129
343,0.0380215644836426,0.0000688018353610763
344,0.0375823974609375,0.0000616891660333756
345,0.036982536315918,0.0000422350959188092
346,0.0364646911621094,0.0000452392578703998
347,0.0359783172607422,0.0000344595272747941
348,0.0353703498840332,0.0000299141692416198
349,0.0349531173706055,0.0000329707983266116
350,0.0344743728637695,0.0000509647248734432
351,0.0339617729187012,0.0000525051628691071
352,0.0334911346435547,0.0000465166806893561
353,0.0330510139465332,0.0000637839883881978
354,0.0326504707336426,0.0000546035805244226
355,0.0321931838989258,0.0000565388937197784
356,0.0316929817199707,0.0000554721699288119
357,0.0311932563781738,0.0000483419759236788
358,0.0307164192199707,0.000053082278332135
359,0.0302286148071289,0.0000385376180449224
360,0.0297603607177734,0.0000393881635896881
361,0.0291533470153809,0.0000507568461353692
362,0.0287647247314453,0.0000671240400496207
363,0.0283694267272949,0.0000777098285038437
364,0.027918815612793,0.0000604117113194066
365,0.0274901390075684,0.0000473199319078647
366,0.0269627571105957,0.0000484910802580865
367,0.0265684127807617,0.0000638303132552808
368,0.0260748863220215,0.000051938052384148
369,0.0256772041320801,0.0000605226396598039
370,0.0252780914306641,0.0000666702930939991
371,0.0248885154724121,0.0000765349634269759
372,0.0244474411010742,0.0000757060647299644
373,0.0241222381591797,0.0000535673014449448
374,0.0237898826599121,0.0000404033328185273
375,0.0232315063476562,0.0000595349858456926
376,0.0229926109313965,0.0000691446763933771
377,0.0225205421447754,0.0000754413048006166
378,0.0222291946411133,0.0000825079865393064
379,0.0217876434326172,0.0000966745445058761
380,0.021573543548584,0.000120202693729033
381,0.0211801528930664,0.0000935379015750063
382,0.0208792686462402,0.0000693859510552028
383,0.0205645561218262,0.0000693089001578381
384,0.0202560424804687,0.0000683276201683908
385,0.0199284553527832,0.0000606942715805497
386,0.0195341110229492,0.0000470597449931157
387,0.0192842483520508,0.0000746048269294614
388,0.018925666809082,0.0000657845207074661
389,0.01849365234375,0.0000933748946909509
390,0.0183596611022949,0.0000889042389639416
391,0.0180530548095703,0.0000798584801309903
392,0.0178136825561523,0.0000728235099815845
393,0.0174646377563477,0.0000579970039542514
394,0.0170249938964844,0.0000647568737370754
395,0.0167727470397949,0.0000560359746758369
396,0.0165772438049316,0.0000548383463592055
397,0.0164189338684082,0.0000629948629454079
398,0.0161070823669434,0.0000739282154297598
399,0.0156755447387695,0.0000612359915034433
400,0.015625,0.000079493202149104
401,0.0153088569641113,0.000113613395138568
402,0.0151348114013672,0.0000786044035439134
403,0.014946460723877,0.0000591556806393863
404,0.0146622657775879,0.000062638328070347
405,0.0144062042236328,0.0000775032757879259
406,0.0141820907592773,0.000088640423784052
407,0.0140867233276367,0.0000699359359160894
408,0.0138521194458008,0.0000599403464497514
409,0.0135855674743652,0.0000847188139614871
410,0.0133213996887207,0.0000809851447375383
411,0.0132384300231934,0.0000643518201051655
412,0.0130329132080078,0.0000542631467663815
413,0.0128097534179687,0.0000412291838096948
414,0.0125722885131836,0.0000453007848465442
415,0.0123977661132812,0.0000572472747910416
416,0.0123038291931152,0.0000792396620851254
417,0.0120415687561035,0.000063363746424723
418,0.0119175910949707,0.0000838243919883837
419,0.0117740631103516,0.0000942233120377141
420,0.0116019248962402,0.0000754864999869701
421,0.011472225189209,0.0000582746903001843
422,0.0111255645751953,0.0000661395656309621
423,0.0109462738037109,0.0000976270952514178
424,0.010770320892334,0.0000884349757762471
425,0.0108184814453125,0.0000704525892705567
426,0.0106334686279297,0.0000549594904582058
427,0.0104999542236328,0.000067436643470298
428,0.0102591514587402,0.0000716764131122633
429,0.0103130340576172,0.0000496002335508188
430,0.0100774765014648,0.0000466691808056529
431,0.00984954833984375,0.0000591739351558249
432,0.00967216491699219,0.0000682477086901429
433,0.00966167449951172,0.0000617886023823756
434,0.00948143005371094,0.0000599327593041941
435,0.00925016403198242,0.0000762730808338731
436,0.00917339324951172,0.0000596542152271072
437,0.00911378860473633,0.0000656617059918075
438,0.00898981094360352,0.0000410827797600784
439,0.00880575180053711,0.0000421758355745475
440,0.00876474380493164,0.000054135194677657
441,0.00881576538085938,0.0000628720235683614
442,0.00847196578979492,0.0000566814787564057
443,0.00842523574829102,0.0000436182212988018
444,0.00821113586425781,0.0000453960494688661
445,0.00819826126098633,0.0000496208578258655
446,0.00810003280639648,0.000043002014591888
447,0.00795841217041016,0.0000631624770676939
448,0.0078587532043457,0.0000469060909736298
449,0.00779247283935547,0.0000403885576747748
450,0.00765085220336914,0.0000456906051730773
451,0.00756931304931641,0.0000651681326257603
452,0.00754594802856445,0.0000848100162066439
453,0.0073704719543457,0.0000855879530176684
454,0.00738239288330078,0.0000793901649027535
455,0.00732612609863281,0.000071379193882615
456,0.00723409652709961,0.0000726891289667845
457,0.0072021484375,0.0000560856587098644
458,0.00699567794799805,0.0000617168033117807
459,0.00700998306274414,0.0000691890552239428
460,0.00684261322021484,0.0000746200639099787
461,0.00688886642456055,0.0000947695108144369
462,0.00667715072631836,0.0000629298602032038
463,0.00675582885742188,0.000059619901611828
464,0.00673818588256836,0.0000541330945828185
465,0.00657367706298828,0.000056797691037476
466,0.00651121139526367,0.0000491940211263527
467,0.00642681121826172,0.0000706749241395909
468,0.00626039505004883,0.0000757345914145641
469,0.00637674331665039,0.0000691380993291186
470,0.00619173049926758,0.0000776468954823871
471,0.00624179840087891,0.0000669714351182144
472,0.00615978240966797,0.0000669697375544936
473,0.00598478317260742,0.0000748862092185996
474,0.00602436065673828,0.0000700739744475225
475,0.00597763061523438,0.0000666395922487658
476,0.00590753555297852,0.0000634247196757042
477,0.00585556030273438,0.0000557644696217884
478,0.00578784942626953,0.0000747540154196971
479,0.00575685501098633,0.000089678352462716
480,0.00584697723388672,0.0000926709432426954
481,0.00568342208862305,0.0000812738127892455
482,0.00552940368652344,0.000110521349033394
483,0.00556850433349609,0.0000879476986124587
484,0.00533485412597656,0.0000684522950932555
485,0.00659608840942383,0.0000619209357891111
486,0.00499868392944336,0.0000530683553922662
487,0.00506114959716797,0.0000719502872995759
488,0.00505352020263672,0.0000834832791622727
489,0.00513410568237305,0.0000765215934471412
490,0.00509405136108398,0.0000647937307413598
491,0.00517463684082031,0.0000846919710806887
492,0.00510597229003906,0.0000688414810798205
493,0.00500822067260742,0.0000863272818194073
494,0.00482511520385742,0.0000765037631726978
495,0.00485897064208984,0.0000797060089677017
496,0.00497007369995117,0.0000839680314275569
497,0.00472068786621094,0.0000763579934217158
498,0.00471305847167969,0.0000604333489209965
499,0.00463485717773438,0.0000618272288846235
500,0.00461578369140625,0.0000658950307681801
501,0.00451469421386719,0.0000630435710183655
502,0.00455188751220703,0.0000675932439993547
503,0.00450897216796875,0.0000767693015956806
504,0.00437307357788086,0.0000827913450785266
505,0.00435972213745117,0.0000650231765977863
506,0.00437831878662109,0.0000598682297454116
507,0.00434255599975586,0.0000585840587871638
508,0.00427579879760742,0.0000669612490903548
509,0.00422859191894531,0.0000607579238261035
510,0.00421905517578125,0.0000522240101576044
511,0.00411605834960938,0.0000640614351078314
512,0.00405120849609375,0.0000993035563510843
513,0.00397014617919922,0.0000693138208593026
514,0.00407791137695313,0.0000492979059390456
515,0.00392580032348633,0.0000664174425680043
516,0.00399065017700195,0.0000868838651575499
517,0.00400257110595703,0.000069438362318312
518,0.00382232666015625,0.0000739912383821365
519,0.00380516052246094,0.0000660053558066902
520,0.00379753112792969,0.0000660242993571128
521,0.00390052795410156,0.0000733058622855318
522,0.00368452072143555,0.0000629352796626908
523,0.00373220443725586,0.0000729903595641943
524,0.00366687774658203,0.0000718459266758545
525,0.00355625152587891,0.0000690574794554967
526,0.00359535217285156,0.0000715605332451658
527,0.00360679626464844,0.000059119154696897
528,0.00350046157836914,0.000063320671133256
529,0.0035395622253418,0.0000733926588375852
530,0.00347614288330078,0.0000518887789195413
531,0.00341558456420898,0.0000426562754789312
532,0.00339221954345703,0.0000469157848184191
533,0.00344514846801758,0.0000624292573299766
534,0.00338268280029297,0.0000508999935642227
535,0.00322341918945312,0.0000419630245510272
536,0.00328445434570312,0.0000516119782090862
537,0.00326871871948242,0.0000573177305593938
538,0.00318145751953125,0.0000614139603693845
539,0.00320005416870117,0.0000452279478986725
540,0.00313043594360352,0.000040627813094974
541,0.00317287445068359,0.0000589275043707863
542,0.00313186645507812,0.0000708468339829618
543,0.00304031372070312,0.0000468466724045377
544,0.00305318832397461,0.0000494498755565091
545,0.00295782089233398,0.0000501098910870632
546,0.00301647186279297,0.0000560755226863039
547,0.00308132171630859,0.0000745179166487806
548,0.00298404693603516,0.0000662391864007103
549,0.00290489196777344,0.0000558744507863236
550,0.00287866592407227,0.0000451411439744525
551,0.00279808044433594,0.000047365557693311
552,0.00281524658203125,0.0000571250119471433
553,0.00289106369018555,0.0000577701549950817
554,0.00278997421264648,0.0000660432374738513
555,0.00269603729248047,0.0000806545773929222
556,0.0026707649230957,0.0000699944325269898
557,0.00271320343017578,0.0000541005326881631
558,0.00271272659301758,0.0000471683306277848
559,0.00264883041381836,0.0000651681326257603
560,0.00271415710449219,0.000074107919662178
561,0.00262355804443359,0.0000728453624981999
562,0.00258398056030273,0.0000453797683829408
563,0.00264167785644531,0.0000559679679794049
564,0.00256013870239258,0.0000655750787264675
565,0.00253057479858398,0.000059242099619308
566,0.00254583358764648,0.0000589082085503761
567,0.00257301330566406,0.0000528913226892257
568,0.00245761871337891,0.000050720996153491
569,0.00249576568603516,0.0000593935088007437
570,0.00261259078979492,0.000054343748338649
571,0.0024871826171875,0.0000640791791834862
572,0.00232648849487305,0.0000678048355020654
573,0.00254106521606445,0.0000415491832747978
574,0.00246810913085937,0.0000444290959097799
575,0.00229787826538086,0.0000431379531647744
576,0.00248193740844727,0.0000445504748902183
577,0.00247764587402344,0.0000493175040550133
578,0.00233268737792969,0.0000616522970568373
579,0.00231122970581055,0.0000513823844562423
580,0.00237798690795898,0.000053094056429559
581,0.00244331359863281,0.0000466618721875193
582,0.00220203399658203,0.000052792355760521
583,0.00205469131469727,0.00005559397782404
584,0.00230836868286133,0.000053473837924485
585,0.00227975845336914,0.000054489991198159
586,0.00209236145019531,0.0000560684263795421
587,0.00231361389160156,0.0000427959689187572
588,0.00205564498901367,0.0000517747230474291
589,0.00204944610595703,0.0000699749390901486
590,0.00206518173217773,0.0000626655467428479
591,0.00198507308959961,0.0000489147542842559
592,0.00225496292114258,0.0000347339131383406
593,0.00207662582397461,0.0000345303859524377
594,0.00203275680541992,0.0000456918492503833
595,0.00205183029174805,0.000048740128857348
596,0.00191354751586914,0.0000468126850749011
597,0.00202178955078125,0.0000464689982212267
598,0.0020442008972168,0.0000455697682441225
599,0.00207138061523437,0.0000451663217018685
600,0.00194215774536133,0.0000680558724048016
601,0.00188922882080078,0.0000509446446483512
602,0.00189590454101562,0.0000465582101764882
603,0.00194072723388672,0.0000592468969777542
604,0.00182628631591797,0.000043238640662398
605,0.00194501876831055,0.0000306347000212494
606,0.00184774398803711,0.0000472634390876503
607,0.00176048278808594,0.0000445249489184383
608,0.0018162727355957,0.0000443714847133037
609,0.00182390213012695,0.0000507064248583162
610,0.00183439254760742,0.0000398101916757278
611,0.00175857543945312,0.0000489472820302143
612,0.0017552375793457,0.0000518504227411964
613,0.00179672241210937,0.000040005330370165
614,0.00181388854980469,0.000043954455067048
615,0.00182819366455078,0.0000511795343971204
616,0.00165891647338867,0.0000394263887791877
617,0.00179862976074219,0.0000435595376648303
618,0.00166845321655273,0.0000457564946590239
619,0.00164175033569336,0.0000528719741709804
620,0.00163841247558594,0.0000546545666997321
621,0.00161457061767578,0.0000567295954702967
622,0.0016627311706543,0.0000456345865915816
623,0.00164270401000977,0.0000489228882482748
624,0.00162982940673828,0.0000462150908283864
625,0.00160551071166992,0.0000349866571959746
626,0.00158977508544922,0.0000426642702827646
627,0.00158500671386719,0.0000378395147654524
628,0.00148916244506836,0.0000507814783167979
629,0.0015869140625,0.0000538171522639009
630,0.00156068801879883,0.000055158745010251
631,0.00151920318603516,0.000052913887018513
632,0.00148296356201172,0.0000558194872910557
633,0.00145196914672852,0.0000515535730309349
634,0.00148391723632812,0.0000433371267986365
635,0.00140047073364258,0.0000408851368890919
636,0.00146007537841797,0.0000536839020213971
637,0.00138521194458008,0.0000529267766018357
638,0.00146770477294922,0.0000503915588898579
639,0.00142908096313477,0.0000501790402644207
640,0.0013880729675293,0.0000543280561121838
641,0.00139856338500977,0.0000565971760748207
642,0.0013737678527832,0.0000442907031428322
643,0.00136089324951172,0.0000435112273853321
644,0.00136327743530273,0.0000579744570513761
645,0.00135040283203125,0.0000491917100831491
646,0.00129127502441406,0.0000655039588825686
647,0.00135517120361328,0.0000618511284402506
648,0.0013585090637207,0.0000622578432430869
649,0.00127792358398437,0.0000592123473216072
650,0.00134181976318359,0.0000413723220128705
651,0.00136852264404297,0.0000397415952504118
652,0.00133085250854492,0.0000449847275355177
653,0.00133752822875977,0.0000472730596544565
654,0.00131940841674805,0.0000555346426450373
655,0.00213003158569336,0.0000354763320679739
656,0.00200176239013672,0.0000404778297990879
657,-0.000111579895019531,0.0000518898743937462
658,0.00123119354248047,0.0000700187916912808
659,0.00121212005615234,0.000071951867357053
660,0.0012354850769043,0.0000670986299968296
661,0.00129985809326172,0.000054160389464009
662,0.00121593475341797,0.0000572144982094243
663,0.00121450424194336,0.000067283057882908
664,0.00124740600585937,0.0000614602218523365
665,0.00120306015014648,0.000052729868102979
666,0.00125646591186523,0.0000462236998534307
667,0.0011754035949707,0.0000527697394645195
668,0.00122308731079102,0.000040137964290096
669,0.00114345550537109,0.0000411581185851703
670,0.00118207931518555,0.0000379115529343699
671,0.00119256973266602,0.0000378011886496046
672,0.00124454498291016,0.0000533993751249354
673,0.00108432769775391,0.0000566945143986898
674,0.00114345550537109,0.0000480743145977427
675,0.00111532211303711,0.0000423124133138256
676,0.0012354850769043,0.0000558479936335455
677,0.00118446350097656,0.0000575186983904952
678,0.00114202499389648,0.0000473919525450075
679,0.00110626220703125,0.0000490145922632555
680,0.00106525421142578,0.0000521390416444269
681,0.00109767913818359,0.0000663934744219486
682,0.00109243392944336,0.0000459931624210176
683,0.0010833740234375,0.0000439984030701533
684,0.0010981559753418,0.0000596951750846252
685,0.00114965438842773,0.0000505750942846243
686,0.00103425979614258,0.0000526338376104226
687,0.00104618072509766,0.0000492863739952309
688,0.00108098983764648,0.0000547169340460406
689,0.00103139877319336,0.0000592986837183557
690,0.00107765197753906,0.000055470120451785
691,0.00106334686279297,0.0000490818101879
692,0.0010685920715332,0.0000564473294392545
693,0.00100803375244141,0.0000544472036052253
694,0.00103187561035156,0.0000594805379086024
695,0.00106191635131836,0.0000540427133022419
696,0.00104665756225586,0.0000683143080801697
697,0.0010685920715332,0.0000474387073253413
698,0.000995159149169922,0.0000577268445984709
699,0.00104093551635742,0.0000612044222497627
700,0.00101900100708008,0.0000568757002640923
701,0.00099945068359375,0.0000459783291065851
702,0.00106334686279297,0.0000531913933863163
703,0.000992774963378906,0.0000431445412240631
704,0.000972270965576172,0.0000471454278196233
705,0.00100183486938477,0.0000626274372890649
706,0.000938892364501953,0.0000538139834734684
707,0.00106620788574219,0.0000495784541749646
708,0.000947475433349609,0.0000573207056567906
709,0.000952720642089844,0.0000442907031428322
710,0.000996112823486328,0.0000498540033123717
711,0.000946998596191406,0.000048094411320693
712,0.000896930694580078,0.0000581506775643392
713,0.000927448272705078,0.0000425689012057358
714,0.000995159149169922,0.0000369887043374161
715,0.000901222229003906,0.0000456582472648839
716,0.000923633575439453,0.0000472478014885524
717,0.000864028930664063,0.0000331796095980237
718,0.000972747802734375,0.0000458780787912702
719,0.000871658325195313,0.0000435308190957153
720,0.000853061676025391,0.0000405038012011438
721,0.000914573669433594,0.0000406963125102079
722,0.000830173492431641,0.0000350337423071325
723,0.000902652740478516,0.0000565026882271846
724,0.000832557678222656,0.0000510928289270006
725,0.000879287719726563,0.0000461363052558592
726,0.000902652740478516,0.0000666651772682966
727,0.000888347625732422,0.0000598444881497565
728,0.000802040100097656,0.0000519424299856042
729,0.000814437866210938,0.000051395658128501
730,0.000772476196289063,0.0000543887076286654
731,0.000805377960205078,0.0000499303381161926
732,0.000790596008300781,0.000057785896182021
733,0.000794410705566406,0.0000603052920718968
734,0.000772476196289063,0.0000462150908283864
735,0.000790596008300781,0.0000386304319850658
736,0.000753879547119141,0.0000429444744003237
737,0.00074005126953125,0.0000488973198051111
738,0.000755786895751953,0.0000588734601366068
739,0.000684261322021484,0.0000416932679479838
740,0.000731945037841797,0.0000551906825748265
741,0.000727653503417969,0.0000711334926269875
742,0.000688076019287109,0.0000563384666311553
743,0.000692844390869141,0.0000470778599915385
744,0.000725269317626953,0.0000618272288846235
745,0.000721931457519531,0.0000576302635530959
746,0.000689983367919922,0.0000527858949504419
747,0.000696659088134766,0.0000643200126297376
748,0.000748634338378906,0.0000553110549807965
749,0.000737190246582031,0.0000476264609877921
750,0.00069427490234375,0.0000473751575226948
751,0.000743865966796875,0.0000553346871352526
752,0.000721454620361328,0.0000450352438091949
753,0.000818729400634766,0.0000361060516832535
754,0.000700473785400391,0.0000601079670492436
755,0.000736713409423828,0.0000550049798862373
756,0.000832557678222656,0.0000588010016549676
757,0.000712871551513672,0.0000544033375193522
758,0.000718593597412109,0.0000553357143912863
759,0.000760078430175781,0.000060119314241312
760,0.000695228576660156,0.0000502921938836487
761,0.000718593597412109,0.0000531454212172209
762,0.000716686248779297,0.0000555786385919449
763,0.000757694244384766,0.0000520277195939979
764,0.000784873962402344,0.0000477516167703508
765,0.000744342803955078,0.000050366736016146
766,0.000722885131835938,0.0000530994092465613
767,0.000771045684814453,0.0000653823559686266
768,0.000770092010498047,0.0000589795715532591
769,0.000726699829101563,0.0000661842417605117
770,0.000775814056396484,0.0000465252339082736
771,0.000728607177734375,0.0000396492319221256
772,0.000660896301269531,0.0000597113607668199
773,0.000758647918701172,0.0000634730978854714
774,0.000762462615966797,0.0000616356988222371
775,0.000701427459716797,0.0000428165517257044
776,0.000681877136230469,0.0000541645874556802
777,0.00070953369140625,0.0000576726608647574
778,0.000703334808349609,0.0000640472363078326
779,0.000703811645507813,0.0000585267837878718
780,0.000721454620361328,0.0000434916268494551
781,0.000728607177734375,0.0000550452686337028
782,0.000758171081542969,0.000059755135337145
783,0.000697612762451172,0.0000529203322026071
784,0.000759124755859375,0.0000709879057928064
785,0.000689983367919922,0.0000659519401627354
786,0.000711441040039063,0.0000600388920920372
787,0.000737667083740234,0.000050242437687385
788,0.000767707824707031,0.0000431577143256231
789,0.000715255737304688,0.0000382147127943286
790,0.000730037689208984,0.0000481156810547558
791,0.000684738159179688,0.0000673742388198092
792,0.000766277313232422,0.0000527481911196851
793,0.000751972198486328,0.0000484652840099623
794,0.000750541687011719,0.0000489042943426202
795,0.000723361968994141,0.0000496483435320865
796,0.000705718994140625,0.0000620987724155415
797,0.000682353973388672,0.0000696916715335691
798,0.000731468200683594,0.0000602722922457452
799,0.000662326812744141,0.0000443240594109705
800,0.000736236572265625,0.0000399399156670474
801,0.000703811645507813,0.0000491130699095417
802,0.000771999359130859,0.0000711143114232878
803,0.000745773315429688,0.0000579293369189279
804,0.000720977783203125,0.0000423822136750965
805,0.000705718994140625,0.0000501948971269636
806,0.000618457794189453,0.0000662254545142916
807,0.000614166259765625,0.0000688678988794517
808,0.000719070434570313,0.0000556307747245878
809,0.000680923461914063,0.000035140666347299
810,0.000684738159179688,0.0000410273971792782
811,0.000532627105712891,0.0000605310919522353
812,0.000702381134033203,0.0000644383275771827
813,0.000638961791992188,0.0000512472402984498
814,0.000576972961425781,0.0000625947535759809
815,0.000732421875,0.0000441557387768081
816,0.000650405883789063,0.000062248712250966
817,0.000641822814941406,0.0000491200138127613
818,0.000599384307861328,0.0000463097020804557
819,0.000658035278320313,0.0000533972460905816
820,0.000548839569091797,0.0000618639936074328
821,0.000639438629150391,0.0000463624529204678
822,0.000631809234619141,0.0000637037311255063
823,0.000580310821533203,0.0000582454197722941
824,0.000599861145019531,0.0000572015810661369
825,0.000660896301269531,0.0000550690148470454
826,0.000659465789794922,0.0000464641049449302
827,0.000615119934082031,0.0000472562223772246
828,0.000544071197509766,0.0000606249270243035
829,0.000621795654296875,0.0000402870964296591
830,0.000571250915527344,0.0000642846525321615
831,0.000558376312255859,0.0000727626005080609
832,0.000562191009521484,0.0000589419720906492
833,0.00054931640625,0.00006103515625
834,0.000555515289306641,0.0000562455654543486
835,0.000513076782226563,0.0000566955170162595
836,0.000535964965820313,0.0000458260108060225
837,0.000514507293701172,0.0000650179311716435
838,0.000505924224853516,0.0000723410845509067
839,0.000546455383300781,0.0000510772508269155
840,0.000573158264160156,0.0000621737875330946
841,0.000446796417236328,0.0000502322542121222
842,0.000559806823730469,0.000043126092121902
843,0.000502109527587891,0.0000406124197957374
844,0.000513553619384766,0.0000459882185144763
845,0.000526905059814453,0.0000570413647767359
846,0.00052642822265625,0.0000644594953831445
847,0.000639438629150391,0.0000592699188931277
848,0.000541210174560547,0.0000505143650129512
849,0.000584602355957031,0.0000489554105897335
850,0.000614166259765625,0.0000458284915753195
851,0.000642776489257813,0.0000584023330469248
852,0.000590801239013672,0.0000664431131299986
853,0.00061798095703125,0.0000443407281351765
854,0.000540733337402344,0.0000611263577236419
855,0.000636100769042969,0.0000651349783917617
856,0.00058746337890625,0.0000683891548702518
857,0.000603199005126953,0.0000764205002192436
858,0.000568866729736328,0.0000553521478950687
859,0.000585556030273438,0.0000564755188757035
860,0.000571250915527344,0.0000554783179056225
861,0.000634193420410156,0.0000569755558490045
862,0.000589370727539063,0.0000762745713430497
863,0.000604629516601563,0.0000488042307295749
864,0.000655651092529297,0.000055799116701628
865,0.000543594360351563,0.000056251628903577
866,0.00061798095703125,0.0000681460193059915
867,0.000657081604003906,0.0000619686534028354
868,0.000647544860839844,0.0000795646772864094
869,0.000586032867431641,0.0000637732932555085
870,0.000671863555908203,0.0000568876921889394
871,0.000625133514404297,0.0000439208180987147
872,0.000695705413818359,0.0000589574004119789
873,0.000594615936279297,0.0000748543217452912
874,0.000683784484863281,0.0000562789063408683
875,0.0006866455078125,0.0000607214255513443
876,0.000632286071777344,0.0000767278254909923
877,0.000669002532958984,0.0000640099494726175
878,0.000664710998535156,0.0000528880984277431
879,0.000721931457519531,0.0000523696598537385
880,0.000652790069580078,0.0000588367589914945
881,0.000650882720947266,0.0000537896832117008
882,0.000682830810546875,0.0000764740368103801
883,0.000609397888183594,0.0000631534768714259
884,0.000618934631347656,0.0000764695768593566
885,0.000632286071777344,0.0000739020681993842
886,0.000590324401855469,0.0000605939775147441
887,0.00064849853515625,0.000062652846167209
888,0.000683307647705078,0.0000571200363775502
889,0.000635147094726563,0.0000660845381631601
890,0.000699043273925781,0.000063635879499257
891,0.000650405883789063,0.0000626292525507945
892,0.000626087188720703,0.000056381835340576
893,0.000764369964599609,0.0000537759434238466
894,0.000658512115478516,0.0000558683464015803
895,0.000682830810546875,0.000056263753841691
896,0.000622749328613281,0.0000589043486277857
897,0.000697612762451172,0.0000545244056035484
898,0.000662803649902344,0.0000484605923077238
899,0.000696659088134766,0.0000737341979919977
900,0.000616550445556641,0.0000678333330298953
901,0.000639915466308594,0.0000729342658631347
902,0.000649929046630859,0.0000787907574568652
903,0.000597000122070313,0.0000568507089629305
904,0.00060272216796875,0.0000728000892918841
905,0.000636577606201172,0.0000496025255604109
906,0.000582695007324219,0.0000658346185627204
907,0.000655651092529297,0.0000717398295485678
908,0.000575065612792969,0.0000881336456779798
909,0.00058746337890625,0.000068526991170845
910,0.000583648681640625,0.0000893506826619851
911,0.000627040863037109,0.0000664208658828311
912,0.000486373901367188,0.000058710060746704
913,0.000453472137451172,0.0000599137872368291
914,0.000509738922119141,0.0000565187824205544
915,0.000552177429199219,0.0000609522121822062
916,0.000580310821533203,0.0000900679631859388
917,0.000649929046630859,0.0000818939187661305
918,0.000539779663085938,0.0000829408858798542
919,0.000588417053222656,0.0000608074889307053
920,0.000548362731933594,0.0000563586422752024
921,0.000447750091552734,0.0000806292014612131
922,0.000472545623779297,0.0000774695305479781
923,0.00042724609375,0.0000914682554857649
924,0.000529766082763672,0.0000912542245018439
925,0.000444889068603516,0.0000884889520500386
926,0.000406742095947266,0.00008725468553918
927,0.000293254852294922,0.0000980245455191249
928,0.000390529632568359,0.0000597227833132213
929,0.000340461730957031,0.0000486525811052381
930,0.000199317932128906,0.0000530683553922662
931,0.000333309173583984,0.0000822512999236968
932,0.000170230865478516,0.0000945821858842273
933,0.0000982284545898438,0.0000929331032949816
934,0.000273227691650391,0.0000722624648778968
935,0.000148773193359375,0.0000652274191954101
936,0.000224590301513672,0.0000511884189617906
937,0.000132083892822266,0.000075752602733083
938,0.0000753402709960938,0.0000861242360796838
939,-0.0000371932983398437,0.0000640241565418131
940,-0.0000615119934082031,0.0000657897050133025
941,0.0000252723693847656,0.0000672577079072957
942,-0.000118255615234375,0.00006909862379695
943,-0.000187873840332031,0.0000970126340944635
944,-0.000207901000976562,0.0000883629561225777
945,-0.000164508819580078,0.000128452531619912
946,-0.000260829925537109,0.000111353473302907
947,-0.000223159790039062,0.000106027398634807
948,-0.000348567962646484,0.000122679738852585
949,-0.000330448150634766,0.000117530445121795
950,-0.000446796417236328,0.000104448020315209
951,-0.000485420227050781,0.000122894544295673
952,-0.000617504119873047,0.000134853055441654
953,-0.000454425811767578,0.000113186317058086
954,-0.000628948211669922,0.000144817258392023
955,-0.000777244567871094,0.0000982816792702454
956,-0.000791072845458984,0.0000966886551748649
957,-0.000962734222412109,0.00010848647928794
958,-0.00101041793823242,0.000130374638950351
959,-0.00104856491088867,0.000118628038509167
960,-0.00102090835571289,0.000127738969952431
961,-0.00119876861572266,0.0000964720647816889
962,-0.000985622406005859,0.000101880362602336
963,-0.000993728637695313,0.00012654435275474
964,-0.00107812881469727,0.000148681465628009
965,-0.00107717514038086,0.000165057304569074
966,-0.000771999359130859,0.000164444537664875
967,-0.00107526779174805,0.000159486169696571
968,-0.00113296508789062,0.000122060998918955
969,-0.0010228157043457,0.000146304332834766
970,-0.000844478607177734,0.000153025357658617
971,-0.000896930694580078,0.000129583952242682
972,-0.000955104827880859,0.000169625394281895
973,-0.000832557678222656,0.000117683178794793
974,-0.000742435455322266,0.000140293887397377
975,-0.000645160675048828,0.000115721216675701
976,-0.000851631164550781,0.000180957031481599
977,-0.000617504119873047,0.000154209461341569
978,-0.000615596771240234,0.000175771257659568
979,-0.000611782073974609,0.000189979966694272
980,-0.000405311584472656,0.000184663462407359
981,-0.000775337219238281,0.000164253617413414
982,-0.000470161437988281,0.000195305421820175
983,-0.000365734100341797,0.000157486255010867
984,-0.000364780426025391,0.000114883124804202
985,-0.000115394592285156,0.000182164276654033
986,-0.0000691413879394531,0.000166366290949681
987,0.000201225280761719,0.000174034457962905
988,0.000034332275390625,0.000156501413152549
989,0.000299930572509766,0.000177034424401287
990,-0.0000882148742675781,0.000229001014199123
991,-0.000232696533203125,0.0002850321783939
992,0.000289440155029297,0.000192287798900181
993,0.000176906585693359,0.000185542969286117
994,0.000187873840332031,0.000175672918290097
995,0.000126361846923828,0.000188996018258137
996,0.000300884246826172,0.00016061698918791
997,0.000342369079589844,0.000216784248113212
998,0.000681400299072266,0.000248270567986934
999,0.000282764434814453,0.000184747170934048
1000,0.000447273254394531,0.000200348793777368
1001,0.000463008880615234,0.00014950194746581
1002,0.000673294067382813,0.000202165459236418
1003,0.000401496887207031,0.000205975990951139
1004,0.000921249389648438,0.000223078264522135
1005,0.000826358795166016,0.000206302481963175
1006,0.000621318817138672,0.000263787074443088
1007,0.000811100006103516,0.000266257944508321
1008,0.000994205474853516,0.000205299302165305
1009,0.000684261322021484,0.000226384686860451
1010,0.000786304473876953,0.000292552712200109
1011,0.000792026519775391,0.000219970309641377
1012,0.000438690185546875,0.000199762332623017
1013,0.00100469589233398,0.000222723281279931
1014,0.000853538513183594,0.000209135363361293
1015,0.000674724578857422,0.000190534486421666
1016,0.000889301300048828,0.00016088855990144
1017,0.000764369964599609,0.000285025796624034
1018,0.00106191635131836,0.000218614106563972
1019,0.00106954574584961,0.000323294186659372
1020,0.00122213363647461,0.000270117202256782
1021,0.000550270080566406,0.000338327304819362
1022,0.000733852386474609,0.000336937333422855
1023,0.000859737396240234,0.000300672202500047
1024,0.000826358795166016,0.000257795649396865
1025,0.00116872787475586,0.000248417057596085
1026,0.000550270080566406,0.000271125431813571
1027,0.000654220581054688,0.000354920630809703
1028,0.000810146331787109,0.000280555359011793
1029,0.000659465789794922,0.000265929821627917
1030,0.000859260559082031,0.000336342963335527
1031,0.000867843627929688,0.000361340641758606
1032,0.000875473022460938,0.000351904530509913
1033,0.00102424621582031,0.000409142954026485
1034,0.000820636749267578,0.000469773424531228
1035,0.000550270080566406,0.000270709152209628
1036,0.00101757049560547,0.000330775169296734
1037,0.000836849212646484,0.000374511194663943
1038,0.000876903533935547,0.00035463351133411
1039,0.000616073608398438,0.000319285831399271
1040,0.00139284133911133,0.000300738742304857
1041,0.00051116943359375,0.000324552058043904
1042,0.000551700592041016,0.000330263350364862
1043,0.000675201416015625,0.000500409189813433
1044,0.00083160400390625,0.000444309894091978
1045,0.000584602355957031,0.000536870361379973
1046,0.000743389129638672,0.000517802122516564
1047,0.00110292434692383,0.000376033190388881
1048,0.000823974609375,0.000352482981461228
1049,0.000614166259765625,0.000339304402165997
1050,0.000943183898925781,0.000557154786079705
1051,-0.0000195503234863281,0.000480946949790208
1052,0.00133275985717773,0.000455413187986798
1053,0.000011444091796875,0.000554549929691707
1054,0.000360965728759766,0.000552051411217911
1055,0.000199317932128906,0.000503655622683686
1056,0.000222206115722656,0.000422674654147442
1057,-0.000594139099121094,0.000373548276832874
1058,0.00106096267700195,0.000432921923888997
1059,0.000329971313476562,0.0006768158829946
1060,-0.000361442565917969,0.000509044157683328
1061,-0.000116348266601562,0.000529803636114333
1062,0.000483036041259766,0.000573030511515834
1063,0.0000457763671875,0.000918193748982568
1064,-0.000646591186523438,0.00082144525632532
1065,0.000151157379150391,0.00064068746262259
1066,0.000178813934326172,0.000833002716531852
1067,-0.000800609588623047,0.000871806476448529
1068,0.00098419189453125,0.000880492950401349
1069,-0.000218868255615234,0.000825386250994783
1070,0.00115108489990234,0.000745653791679115
1071,0.000238895416259766,0.00079182309863341
1072,-0.00140380859375,0.00109555555223626
1073,0.000265598297119141,0.000914111632265601
1074,-0.00120258331298828,0.000733017679113006
1075,0.00111150741577148,0.000838140295973282
1076,0.000245571136474609,0.000833509170215115
1077,-0.00132083892822266,0.000858603532178307
1078,0.0000391006469726562,0.00111373482214843
1079,0.0011444091796875,0.00120445403936653
1080,-0.000980377197265625,0.00096390387669143
1081,0.0000438690185546875,0.00102818652855909
1082,0.000817775726318359,0.00109969194010786
1083,-0.0000019073486328125,0.00138157360161318
1084,0.000859260559082031,0.00149551702194896
1085,-0.00161361694335937,0.00165728292330033
1086,0.00206947326660156,0.0015482220371822
1087,-0.000395774841308594,0.00152927021816986
1088,-0.000487327575683594,0.00124244402989638
1089,-0.00106477737426758,0.00127504508520803
1090,-0.000176906585693359,0.00118430224071852
1091,-0.00134134292602539,0.00188956553748
1092,0.00149726867675781,0.00225943459581258
1093,-0.00130796432495117,0.00192281933782184
1094,-0.00118446350097656,0.00183914305470825
1095,-0.000749588012695313,0.00153724253706595
1096,-0.000568389892578125,0.00157981900376203
1097,-0.000324726104736328,0.00215278748647661
1098,-0.000889301300048828,0.00257525689084348
1099,-0.000858306884765625,0.00274187320147008
1100,-0.00241804122924805,0.00220313876736174
