Wavelength (nm),Absorbance (AU),Std.Dev.
190,0.27310037612915,0.000110381365149653
191,0.257307529449463,0.000069952189881474
192,0.244007110595703,0.0000464592111532536
193,0.232234477996826,0.0000476932516099929
194,0.222084999084473,0.0000448429792232847
195,0.212666988372803,0.0000559334254919288
196,0.204256534576416,0.0000465948231026763
197,0.196352958679199,0.0000398800954901884
198,0.188549041748047,0.0000401351317884665
199,0.180921077728271,0.0000404995907538412
200,0.173548698425293,0.0000390911963136855
201,0.16630744934082,0.000040432866908455
202,0.15953540802002,0.0000422337500162287
203,0.152974128723145,0.0000546774429867138
204,0.146870136260986,0.0000593791510978239
205,0.141067028045654,0.0000583127200210515
206,0.135429382324219,0.0000547916811543022
207,0.130288124084473,0.0000486782780984665
208,0.125409603118896,0.0000462040197248736
209,0.120967388153076,0.0000490702274596708
210,0.116879940032959,0.000049875662363388
211,0.1130690574646,0.0000522936247983992
212,0.109555721282959,0.0000431109315959767
213,0.106282234191895,0.0000440745617805697
214,0.103368759155273,0.0000396757457209358
215,0.100525379180908,0.0000523370869275757
216,0.0979290008544922,0.0000472658444129318
217,0.0954661369323731,0.0000429907771602272
218,0.0931563377380371,0.0000394552134568055
219,0.0909557342529297,0.0000386833685388278
220,0.0888428688049316,0.0000351196312970654
221,0.0868186950683594,0.0000425668981675564
222,0.0848393440246582,0.0000391848750191722
223,0.0829596519470215,0.0000476395879645975
224,0.0812487602233887,0.0000380201018098367
225,0.079470157623291,0.0000302476982310082
226,0.0778636932373047,0.0000400968734324647
227,0.076268196105957,0.0000307790906092793
228,0.0746650695800781,0.0000344405519898924
229,0.0732216835021973,0.000037937033649678
230,0.0717120170593262,0.0000438806787833895
231,0.0702295303344727,0.0000482218890003071
232,0.0687041282653809,0.0000458904672231087
233,0.0672225952148438,0.00005739404257398
234,0.0658459663391113,0.0000418918473033802
235,0.0643835067749023,0.0000466460329197887
236,0.0630054473876953,0.0000433292561456433
237,0.061704158782959,0.0000387046697525988
238,0.0605926513671875,0.0000370332440768388
239,0.0594420433044434,0.0000400628353334331
240,0.0584053993225098,0.0000380761263529381
241,0.0573740005493164,0.000041377817439874
242,0.056419849395752,0.0000413441464848817
243,0.0555620193481445,0.0000423526967921956
244,0.0546836853027344,0.0000568447094157538
245,0.0539121627807617,0.0000467263920974393
246,0.0531444549560547,0.0000372383566112874
247,0.0524215698242188,0.0000364554403754185
248,0.0517230033874512,0.0000509769922282661
249,0.0510721206665039,0.0000432833154785364
250,0.0504341125488281,0.0000349964041406395
251,0.0496983528137207,0.0000373382068527692
252,0.0491037368774414,0.0000386274889382853
253,0.0485701560974121,0.0000322288658324109
254,0.0479564666748047,0.000037796677139794
255,0.0473933219909668,0.0000484605923077238
256,0.0468788146972656,0.0000439738493062293
257,0.0463581085205078,0.0000399320871716391
258,0.045893669128418,0.0000481817935145154
259,0.0454649925231934,0.0000561120038022183
260,0.0450735092163086,0.0000654327617374971
261,0.0446591377258301,0.0000652274191954101
262,0.0442767143249512,0.0000450718327034475
263,0.0437145233154297,0.0000370907592705956
264,0.043339729309082,0.0000472730596544565
265,0.0430030822753906,0.0000534302365896643
266,0.0426115989685059,0.0000536065499457789
267,0.0421509742736816,0.0000512805054902806
268,0.0417556762695313,0.0000540626942630963
269,0.0412678718566895,0.0000475595765678088
270,0.040959358215332,0.0000431912875493889
271,0.0407371520996094,0.0000447909770520063
272,0.0403561592102051,0.0000453885358472093
273,0.0400018692016602,0.0000573415270165051
274,0.0395851135253906,0.0000520528424144088
275,0.0392274856567383,0.0000529407367756721
276,0.0388813018798828,0.0000552359816056075
277,0.0384354591369629,0.0000492921403043769
278,0.0380396842956543,0.0000547968681395509
279,0.0376348495483398,0.0000454210858977872
280,0.037142276763916,0.000035405761058582
281,0.0366144180297852,0.000035738141786941
282,0.036189079284668,0.0000376218172027099
283,0.0356836318969727,0.000045473617530591
284,0.0351195335388184,0.000039763044345389
285,0.034644603729248,0.000032445080888839
286,0.0341057777404785,0.0000317060855760119
287,0.0335783958435059,0.0000369863990989148
288,0.0329403877258301,0.0000392153267723259
289,0.0323753356933594,0.0000359783036606553
290,0.031792163848877,0.0000401889151820623
291,0.0312685966491699,0.000035623437875471
292,0.0307269096374512,0.0000364554403754185
293,0.0301566123962402,0.000037651268543964
294,0.0296626091003418,0.0000348319671015733
295,0.0291156768798828,0.0000307301109261682
296,0.0286421775817871,0.0000406998042872789
297,0.028071403503418,0.0000548601098705092
298,0.0276894569396973,0.0000527395693165678
299,0.0271692276000977,0.0000426729296299889
300,0.0268044471740723,0.0000339049326739063
301,0.0263271331787109,0.000046656999139395
302,0.0259079933166504,0.0000417926755704399
303,0.0254759788513184,0.0000389272637105592
304,0.0251193046569824,0.0000506132938503431
305,0.0248117446899414,0.0000671375881454393
306,0.0244083404541016,0.0000591748957638583
307,0.0241093635559082,0.000048578919063986
308,0.0238313674926758,0.0000470983819002752
309,0.0234723091125488,0.0000465056813821282
310,0.0231075286865234,0.000053716716469013
311,0.0228004455566406,0.0000452744263809133
312,0.0224628448486328,0.0000419284678364021
313,0.022193431854248,0.0000366552573529762
314,0.0218911170959473,0.0000448822579377343
315,0.0215997695922852,0.0000422014354771017
316,0.0212984085083008,0.0000515282067899548
317,0.0209846496582031,0.0000576953257074515
318,0.0207738876342773,0.0000459449366395794
319,0.0204720497131348,0.0000518865879017458
320,0.0202236175537109,0.0000589901721969087
321,0.019920825958252,0.0000565640227883364
322,0.0196714401245117,0.000048012790050998
323,0.0193181037902832,0.0000495773076269914
324,0.0190348625183105,0.0000449670334324676
325,0.0188140869140625,0.0000326537723853008
326,0.0185041427612305,0.0000342087045075878
327,0.0182027816772461,0.0000412105669131639
328,0.0179824829101562,0.0000456930932938172
329,0.017763614654541,0.0000634659330702453
330,0.0174722671508789,0.0000631138607604541
331,0.0172405242919922,0.0000495325715551918
332,0.0169711112976074,0.0000382949521894203
333,0.0166850090026855,0.0000370593286919229
334,0.0164399147033691,0.0000406445991360821
335,0.0162596702575684,0.0000525419592363475
336,0.015932559967041,0.0000450869642502156
337,0.015716552734375,0.0000499667553799965
338,0.0155143737792969,0.0000577238904335358
339,0.0153293609619141,0.0000455448135474129
340,0.014984130859375,0.0000419020228840165
341,0.0147662162780762,0.0000417600197225855
342,0.0145130157470703,0.0000522446866854255
343,0.0142641067504883,0.0000507859556116679
344,0.0140275955200195,0.0000403068450075264
345,0.013819694519043,0.0000444239779399541
346,0.0135321617126465,0.0000463943196801436
347,0.0133876800537109,0.0000445223955163477
348,0.0131645202636719,0.0000471406047579412
349,0.0129070281982422,0.0000434667868158613
350,0.0126409530639648,0.0000407667884096043
351,0.01251220703125,0.000051360254045854
352,0.012244701385498,0.0000626365130716339
353,0.012031078338623,0.000062336314563221
354,0.011897087097168,0.0000574019652772063
355,0.0117087364196777,0.0000639050747956365
356,0.0115132331848145,0.0000489484433356471
357,0.0113124847412109,0.0000505199911604335
358,0.0111083984375,0.0000427467957009591
359,0.0108284950256348,0.0000579989641402749
360,0.0106477737426758,0.0000509390654032655
361,0.010383129119873,0.0000464237157354802
362,0.0102963447570801,0.0000525571031937844
363,0.0100927352905273,0.0000508307068699538
364,0.00998020172119141,0.0000419582831576565
365,0.00968837738037109,0.0000526338376104226
366,0.00981521606445313,0.0000558734334351808
367,0.00935888290405273,0.0000522250985999959
368,0.00928688049316406,0.0000600805358206718
369,0.0092320442199707,0.000051958842706273
370,0.00895547866821289,0.0000485016293142373
371,0.0090794563293457,0.0000592603275153008
372,0.0087580680847168,0.0000737419068230564
373,0.00870943069458008,0.0000730090478873385
374,0.00868797302246094,0.0000751529247468779
375,0.00847339630126953,0.0000499826795893589
376,0.00833225250244141,0.0000528483163620842
377,0.00839900970458984,0.0000542746686052047
378,0.00846290588378906,0.0000785407398410206
379,0.0081334114074707,0.000060201517420472
380,0.00792312622070313,0.0000769807774907279
381,0.00777053833007813,0.0000721286147642986
382,0.00787353515625,0.0000734561412813343
383,0.00760746002197266,0.0000782042014349105
384,0.00752353668212891,0.0000610444687653118
385,0.00742244720458984,0.0000838637140175061
386,0.00736618041992188,0.0000776834906523827
387,0.0074005126953125,0.0000737480733077286
388,0.00723505020141602,0.0000512150634082701
389,0.00673913955688477,0.000059575073536095
390,0.00689363479614258,0.000067450128776331
391,0.0068202018737793,0.0000729997043238055
392,0.00692272186279297,0.0000915899797019445
393,0.00646352767944336,0.0000657153575482421
394,0.00641822814941406,0.0000518230080900148
395,0.00635862350463867,0.0000471610993636249
396,0.00625419616699219,0.0000544691234005194
397,0.00650358200073242,0.0000479049319616315
398,0.00620651245117188,0.0000521837218291861
399,0.00568723678588867,0.0000852605640234427
400,0.00598812103271484,0.0000556420133682523
401,0.00570249557495117,0.0000502198049380554
402,0.00578212738037109,0.0000692531077723166
403,0.00561618804931641,0.000101401638797871
404,0.00577497482299805,0.0000845468722578448
405,0.00558280944824219,0.0000652030136070224
406,0.00498294830322266,0.0000799338955239282
407,0.00521945953369141,0.0000736184686601459
408,0.00557518005371094,0.0000849024595201858
409,0.00495576858520508,0.0000744935025547029
410,0.00487184524536133,0.0000878390477093794
411,0.00508880615234375,0.0000950139169269328
412,0.00517988204956055,0.0000663729234079125
413,0.00473785400390625,0.0000554270639286552
414,0.00461149215698242,0.0000556746947048645
415,0.00462627410888672,0.0000660484014723585
416,0.0044560432434082,0.0000666122907298246
417,0.004425048828125,0.0000691742654438977
418,0.00452566146850586,0.0000741554606255977
419,0.00439119338989258,0.0000593360571440396
420,0.00452899932861328,0.0000583497507799901
421,0.00470352172851563,0.0000634193420410156
422,0.00398540496826172,0.0000729451763499309
423,0.0039982795715332,0.0000752798876642833
424,0.00377893447875977,0.0000799950293560439
425,0.00395822525024414,0.000048578919063986
426,0.00384616851806641,0.0000456918492503833
427,0.00426101684570313,0.0000536542459157405
428,0.00341129302978516,0.0000571459046087593
429,0.00413274765014648,0.0000721033916609302
430,0.00353860855102539,0.0000578055666377706
431,0.00306463241577148,0.00004992692263583
432,0.00328779220581055,0.0000506795129989106
433,0.00375986099243164,0.0000637411970902266
434,0.00327587127685547,0.0000614824150000936
435,0.00301694869995117,0.0000739558906564376
436,0.00332546234130859,0.000057933261803713
437,0.00311565399169922,0.0000545410835593116
438,0.00321435928344727,0.0000490087932981887
439,0.00298452377319336,0.0000389447827320179
440,0.00307083129882812,0.0000547563966238848
441,0.00340127944946289,0.000075282907981148
442,0.00242280960083008,0.0000706958326913099
443,0.00306320190429687,0.0000544879047780331
444,0.00271034240722656,0.0000485952980560199
445,0.00267410278320312,0.0000593542561853608
446,0.00263690948486328,0.0000683741920668047
447,0.00235939025878906,0.0000706572274555622
448,0.00250530242919922,0.0000629840338138013
449,0.00256538391113281,0.0000447045961877332
450,0.00228404998779297,0.0000483490305717898
451,0.00233364105224609,0.0000472393790987731
452,0.00219154357910156,0.0000498995903768642
453,0.00223684310913086,0.000063048980703688
454,0.002288818359375,0.0000556011346841403
455,0.00226640701293945,0.0000485297489200284
456,0.0022125244140625,0.0000799154039960351
457,0.00235939025878906,0.0000628756399166758
458,0.00205230712890625,0.0000679856755089631
459,0.00204133987426758,0.0000748269788097154
460,0.00182294845581055,0.0000647393154076029
461,0.0019526481628418,0.0000549936110568349
462,0.00188970565795898,0.0000493992709631882
463,0.00222301483154297,0.0000551886226445254
464,0.00188827514648437,0.0000516659167121183
465,0.00182294845581055,0.0000764725501889399
466,0.00137472152709961,0.0000671849849661295
467,0.0017852783203125,0.0000619576449076955
468,0.00165605545043945,0.0000503520622023543
469,0.00151586532592773,0.0000555540870110266
470,0.00170278549194336,0.0000670511721339682
471,0.00151491165161133,0.0000482077414603223
472,0.00171566009521484,0.0000390089518303662
473,0.00149726867675781,0.0000510527613514271
474,0.00144481658935547,0.0000760476786950043
475,0.0017237663269043,0.0000753040468072879
476,0.0012822151184082,0.0000585859993313531
477,0.00145769119262695,0.0000710775329810565
478,0.00153636932373047,0.000072982571350516
479,0.00158119201660156,0.0000583896786806842
480,0.00137090682983398,0.0000492979059390456
481,0.00129556655883789,0.0000483102172587441
482,0.00120925903320312,0.0000477206563911446
483,0.00141477584838867,0.0000493313333315542
484,0.000946521759033203,0.0000719218403291624
485,0.00665855407714844,0.000068920704100325
486,-0.00182294845581055,0.0000399021824251661
487,0.000855445861816406,0.0000457092627773393
488,0.000645637512207031,0.0000502786288951663
489,0.00102472305297852,0.0000647884667387453
490,0.000994682312011719,0.0000764784965013153
491,0.00104570388793945,0.0000556695895107127
492,0.000958919525146484,0.000053652126995221
493,0.00106430053710937,0.0000773358723934681
494,0.000792980194091797,0.000070326610811564
495,0.00113677978515625,0.0000757751108608093
496,0.000870227813720703,0.0000663283743668658
497,0.000660419464111328,0.0000768403514041278
498,0.00109672546386719,0.0000802461828514464
499,0.000785350799560547,0.0000648025031288225
500,0.000683307647705078,0.000069590458492996
501,0.00096893310546875,0.0000728250710930885
502,0.000716209411621094,0.0000834451402825446
503,0.0008544921875,0.0000866453923517266
504,0.000774860382080078,0.0000684340236512822
505,0.000942707061767578,0.0000593896804193552
506,0.000671863555908203,0.0000550566267961582
507,0.000598430633544922,0.0000474973852727468
508,0.000713825225830078,0.0000566744583225002
509,0.000658035278320313,0.0000562799163624285
510,0.000684261322021484,0.0000531090429576103
511,0.000547885894775391,0.0000615046001397379
512,0.000649929046630859,0.0000679137320898061
513,0.000517368316650391,0.0000610872880505783
514,0.000579833984375,0.0000635786851234734
515,0.000553607940673828,0.0000701566671979196
516,0.000716686248779297,0.000058947758184355
517,0.000437736511230469,0.0000474614686099798
518,0.000576019287109375,0.0000374635937290086
519,0.000462055206298828,0.0000450251450886264
520,0.000398635864257812,0.0000551711101316491
521,0.000548362731933594,0.0000553921841352072
522,0.000461578369140625,0.0000504783428200112
523,0.000454425811767578,0.0000631246676200568
524,0.000481605529785156,0.0000580469680206749
525,0.000563621520996094,0.0000759564325169144
526,0.000504493713378906,0.0000676151055026691
527,0.000359058380126953,0.0000582044163038032
528,0.000497817993164063,0.0000506413633833472
529,0.000436782836914063,0.0000367071709707598
530,0.000323295593261719,0.0000562758761674224
531,0.000298500061035156,0.0000543259634728474
532,0.000442981719970703,0.0000555694330202724
533,0.000373363494873047,0.0000735242078071083
534,0.000408649444580078,0.0000663437985740196
535,0.000265121459960937,0.0000429405032691385
536,0.000180244445800781,0.000047942887742142
537,0.000362396240234375,0.0000485238920126198
538,0.000446319580078125,0.0000546608066365819
539,0.000245094299316406,0.0000672915057525983
540,0.000299453735351562,0.0000548590737086092
541,0.000301361083984375,0.0000420523335946977
542,0.000257968902587891,0.0000505728463527929
543,0.000223636627197266,0.0000544346740449155
544,0.000253677368164062,0.0000639939627496849
545,0.0000715255737304688,0.0000719676660238568
546,0.000101089477539062,0.0000579519013763505
547,0.000388145446777344,0.0000570184399850176
548,0.0000524520874023438,0.0000660982993248821
549,0.0000476837158203125,0.0000690854602736993
550,0.0000720024108886719,0.000049931476557729
551,0.000192642211914062,0.0000672796784380236
552,0.000115394592285156,0.0000651838313771727
553,0.000125408172607422,0.0000604502772937057
554,0.0000448226928710938,0.000046838177884222
555,0.000270843505859375,0.0000431728584233879
556,0.0000410079956054688,0.0000421212154321731
557,0.000026702880859375,0.000045270659633007
558,-0.0000596046447753906,0.0000433921813964844
559,0.0000782012939453125,0.000060122150704701
560,0.000146865844726562,0.000058609280850038
561,-0.0000400543212890625,0.0000436859353205671
562,-0.0000152587890625,0.0000590007709359453
563,0.0000553131103515625,0.000047552404800209
564,0.0000262260437011719,0.000048740128857348
565,-0.0000696182250976563,0.0000565750760424975
566,0.0000715255737304688,0.0000450907463434947
567,0.000151634216308594,0.000043174175050412
568,0.0000147819519042969,0.0000508754187639574
569,0.000283718109130859,0.0000410509439056828
570,0.000247478485107422,0.0000408677541953098
571,0.000153064727783203,0.0000386672011696713
572,-0.000409126281738281,0.0000371160377207978
573,0.000467300415039063,0.0000412016002220687
574,0.000019073486328125,0.0000347756198544856
575,-0.000336170196533203,0.0000310246613449698
576,0.000378608703613281,0.0000393881635896881
577,0.00034332275390625,0.0000459832740763893
578,-0.000406742095947266,0.0000517373810136873
579,-0.000080108642578125,0.0000505391153770181
580,0.000412464141845703,0.0000408920878976409
581,0.000535011291503906,0.0000311854782437205
582,-0.000628471374511719,0.0000422445160362273
583,-0.000591754913330078,0.0000461252152420162
584,0.000437259674072266,0.0000478752580703802
585,0.000119686126708984,0.0000468187560504386
586,-0.000586032867431641,0.0000476001961738795
587,0.000407218933105469,0.0000385523653353922
588,-0.000518321990966797,0.0000399477426283179
589,-0.000304222106933594,0.0000483807637584438
590,-0.0000972747802734375,0.0000384172165480793
591,-0.000378131866455078,0.0000349549608555505
592,0.000568389892578125,0.0000326015068035112
593,-0.000218868255615234,0.0000356895969413075
594,-0.0000352859497070312,0.000038858571494826
595,-0.000250816345214844,0.0000364772634485345
596,-0.000480175018310547,0.0000464077951835496
597,0.0000205039978027344,0.0000361783991172767
598,-0.000172138214111328,0.0000428676340020324
599,-0.0000247955322265625,0.0000452631251968006
600,-0.0002288818359375,0.0000422774699179036
601,-0.000390529632568359,0.0000383765050423391
602,-0.000226974487304687,0.000046745852306351
603,-0.000266075134277344,0.0000368277609150879
604,-0.000561714172363281,0.0000438923359144909
605,0.0000104904174804687,0.0000328152666742044
606,-0.000596523284912109,0.0000492379103375992
607,-0.000313758850097656,0.0000417109880136248
608,-0.000597000122070313,0.0000386304319850658
609,-0.000431060791015625,0.0000382191749579473
610,-0.000333786010742187,0.0000351471361377151
611,-0.000642299652099609,0.000036027248386016
612,-0.00041961669921875,0.0000288161181063426
613,-0.000384807586669922,0.0000214182305772778
614,-0.000641345977783203,0.0000306374831807138
615,-0.000435829162597656,0.0000287138532570359
616,-0.000835418701171875,0.0000452920003957524
