Wavelength (nm),Absorbance (AU),Std.Dev.
190,0.217194557189941,0.0000877535847695773
191,0.215785503387451,0.0000789075454461579
192,0.214486122131348,0.0000500076931017857
193,0.213349342346191,0.0000416789500873798
194,0.212435722351074,0.0000442264857636282
195,0.211709022521973,0.0000536828431568713
196,0.211236953735352,0.0000494061746416459
197,0.210827350616455,0.0000462421423671728
198,0.210399150848389,0.0000385236028898905
199,0.209976673126221,0.0000383483518465652
200,0.209475994110107,0.0000425341685246454
201,0.208870410919189,0.0000474590731993436
202,0.208186149597168,0.0000404047396932885
203,0.207376956939697,0.0000324319383108748
204,0.206455230712891,0.0000322544299591623
205,0.205282688140869,0.0000526349175779545
206,0.203899383544922,0.0000475284910924859
207,0.20226526260376,0.0000491454663971737
208,0.200441837310791,0.0000437106508158993
209,0.198417663574219,0.0000463783890372766
210,0.196294784545898,0.0000584110921560573
211,0.194000720977783,0.0000566634244547034
212,0.191818714141846,0.0000509992889498975
213,0.189417839050293,0.0000481475680380793
214,0.18705415725708,0.0000489832696960371
215,0.184662342071533,0.000040958063643441
216,0.182300090789795,0.0000359727734594692
217,0.179933071136475,0.0000318295500181228
218,0.17770528793335,0.0000353937178727311
219,0.175439357757568,0.0000330345267150869
220,0.173252105712891,0.0000307938616194202
221,0.171049118041992,0.0000291368574263967
222,0.168920516967773,0.0000325727249863591
223,0.166807651519775,0.0000397966246847623
224,0.164769649505615,0.0000548248693798882
225,0.162691116333008,0.0000385811063383247
226,0.16060733795166,0.0000322685256355521
227,0.158596038818359,0.0000264440492138715
228,0.156540393829346,0.0000274776765942589
229,0.15449047088623,0.0000307744732146616
230,0.152440547943115,0.0000322191637885914
231,0.150474548339844,0.0000338235221109899
232,0.148478507995605,0.0000481853326935548
233,0.146420478820801,0.0000453872834560043
234,0.144495964050293,0.0000350937246959947
235,0.142568588256836,0.0000463661309720334
236,0.140625476837158,0.0000429464598282168
237,0.138829231262207,0.0000341904213029398
238,0.137031555175781,0.0000391696402647774
239,0.135276794433594,0.0000294796643341383
240,0.133558750152588,0.0000244108492256589
241,0.13190746307373,0.0000358247220650673
242,0.130326747894287,0.0000367032993555387
243,0.128864765167236,0.0000368223582906752
244,0.127455234527588,0.0000327302776011874
245,0.126163959503174,0.0000367218793859322
246,0.124851703643799,0.0000382503955281294
247,0.123651504516602,0.0000408106869903176
248,0.12260103225708,0.0000543782552969405
249,0.121634006500244,0.0000422815033220487
250,0.120670795440674,0.000039757325718193
251,0.119803428649902,0.0000415813211849888
252,0.118935108184814,0.0000429391794771299
253,0.118134498596191,0.0000574564042884715
254,0.117321014404297,0.0000490957058547253
255,0.11652135848999,0.0000447719367763729
256,0.115800857543945,0.0000338445229463224
257,0.115015029907227,0.0000464885661758665
258,0.114299774169922,0.0000481664540669647
259,0.113465309143066,0.0000460042842681593
260,0.112575054168701,0.000049920090974054
261,0.111790657043457,0.0000434968545226334
262,0.110970973968506,0.0000323010983279227
263,0.110108375549316,0.0000451763888638573
264,0.109201908111572,0.0000476646385177605
265,0.108110427856445,0.0000491188565637285
266,0.10705041885376,0.0000502198049380554
267,0.106124401092529,0.0000461843312101947
268,0.105125427246094,0.000045664471720254
269,0.104060173034668,0.0000477647093511244
270,0.102988243103027,0.0000711494730132847
271,0.101831912994385,0.0000642475034845436
272,0.100629329681396,0.0000624420033831438
273,0.0995655059814453,0.0000553326325659718
274,0.0984568595886231,0.000046446974418205
275,0.0972938537597656,0.0000380260816937695
276,0.0961451530456543,0.0000412698359498362
277,0.0950140953063965,0.0000559639052639538
278,0.0938100814819336,0.000042982843086678
279,0.0927343368530273,0.0000544346740449155
280,0.091644287109375,0.0000480459284428703
281,0.0905590057373047,0.0000494004216432634
282,0.0894951820373535,0.0000458074007538942
283,0.08831787109375,0.0000514365637213203
284,0.08721923828125,0.0000515866406871739
285,0.0861330032348633,0.0000361107744124511
286,0.085024356842041,0.0000439660926371748
287,0.0839333534240723,0.0000503102748455428
288,0.0829582214355469,0.000035547562522285
289,0.0818676948547363,0.0000355715406447568
290,0.080693244934082,0.0000384038975334864
291,0.0796041488647461,0.0000494705625158359
292,0.0786347389221191,0.0000368871375586553
293,0.0775761604309082,0.0000517505636317916
294,0.0765700340270996,0.0000451033510306119
295,0.0756378173828125,0.0000391812482339938
296,0.0746340751647949,0.0000427527792484802
297,0.0736184120178223,0.0000413248936215842
298,0.0726847648620606,0.000042535504921426
299,0.0717816352844238,0.0000295504416301979
300,0.0708856582641602,0.0000344314731569971
301,0.0699572563171387,0.0000479891057608576
302,0.0690011978149414,0.0000527201651042376
303,0.0680828094482422,0.0000456158984436209
304,0.0671796798706055,0.0000374560064729758
305,0.0663971900939941,0.000046764088897497
306,0.0655784606933594,0.000042794640655782
307,0.0647282600402832,0.0000473487533085114
308,0.0638971328735352,0.0000651576646901654
309,0.0630373954772949,0.0000540164113036517
310,0.062251091003418,0.0000462335367762604
311,0.0614252090454102,0.0000470778599915385
312,0.0606393814086914,0.0000372307234541689
313,0.0598258972167969,0.0000508094549368762
314,0.0591340065002441,0.0000531849810505892
315,0.0583276748657227,0.0000778340812787655
316,0.0576510429382324,0.0000562617332001331
317,0.0568828582763672,0.0000546826408081572
318,0.0561633110046387,0.0000412202211683588
319,0.055539608001709,0.0000492690710185604
320,0.0549082756042481,0.0000438028852956939
321,0.0540847778320313,0.0000439492818245106
322,0.0534629821777344,0.0000519697816404152
323,0.052793025970459,0.0000368385637869194
324,0.052159309387207,0.0000483137470302213
325,0.0515127182006836,0.0000575473507889866
326,0.0508646965026856,0.000067277988651924
327,0.0501594543457031,0.0000523685744159467
328,0.0495367050170898,0.0000662340372769297
329,0.0488834381103516,0.0000434118268322266
330,0.0482511520385742,0.0000498847791504428
331,0.0476570129394531,0.0000451839377633776
332,0.047050952911377,0.0000404708076402649
333,0.046379566192627,0.0000469254766606582
334,0.0457048416137695,0.0000519686878506155
335,0.0449905395507813,0.0000447274779457469
336,0.0444178581237793,0.0000438482816031366
337,0.0438222885131836,0.0000579155977275428
338,0.0432162284851074,0.0000567145633824125
339,0.0427021980285645,0.0000461757148452399
340,0.0421195030212402,0.0000332993178866742
341,0.0414619445800781,0.0000331530443110823
342,0.0409393310546875,0.0000490285069809988
343,0.0403594970703125,0.0000442701637164687
344,0.0398049354553223,0.0000433253202829662
345,0.0392694473266602,0.0000449354194903488
346,0.0386791229248047,0.0000325831940432996
347,0.0380997657775879,0.0000406851368097335
348,0.0375046730041504,0.0000540637456880556
349,0.0370073318481445,0.0000448150831215348
350,0.0365180969238281,0.0000427008939812522
351,0.0359821319580078,0.0000462064801993395
352,0.0354557037353516,0.0000414724989347197
353,0.0348968505859375,0.0000531229552337187
354,0.0344705581665039,0.000057625331608683
355,0.0339374542236328,0.0000554178331786054
356,0.0335564613342285,0.0000530329961287787
357,0.0330204963684082,0.0000566493782420053
358,0.032371997833252,0.0000505177407766305
359,0.0319390296936035,0.000058462646957375
360,0.031409740447998,0.0000406613782474901
361,0.0309619903564453,0.0000359015949878111
362,0.0304503440856934,0.0000624638477089417
363,0.0298471450805664,0.0000721979328619324
364,0.0294370651245117,0.0000566945143986898
365,0.0290098190307617,0.0000548310899358032
366,0.0286760330200195,0.0000532245114805879
367,0.0281391143798828,0.0000527912790137509
368,0.0277886390686035,0.0000689289512618738
369,0.0272998809814453,0.000073054191597769
370,0.0268492698669434,0.0000700009291329558
371,0.0263748168945312,0.0000683242923894935
372,0.0259265899658203,0.0000573157470753354
373,0.025719165802002,0.0000661275322851552
374,0.0252881050109863,0.0000626419579100087
375,0.0247921943664551,0.0000608868958911864
376,0.0244302749633789,0.000079190866533962
377,0.024073600769043,0.0000735118367629275
378,0.0236020088195801,0.0000651716215639873
379,0.0232181549072266,0.0000611635437337267
380,0.022925853729248,0.000062605650042871
381,0.0226631164550781,0.0000681510239708759
382,0.0222349166870117,0.0000952171094637063
383,0.0217633247375488,0.0000778223953570303
384,0.0214877128601074,0.0000879657940490739
385,0.0210976600646973,0.0000759833690149006
386,0.0208339691162109,0.0000740004567511228
387,0.0206661224365234,0.0000707569145708356
388,0.0200901031494141,0.0000898354119274915
389,0.0196757316589355,0.000100471297866494
390,0.0194387435913086,0.0000830532069935974
391,0.019134521484375,0.0000720166198655569
392,0.0189666748046875,0.0000588715290678031
393,0.0184917449951172,0.0000716240522823877
394,0.0183453559875488,0.0000690871058512681
395,0.0179653167724609,0.0000712117622546332
396,0.0176305770874023,0.0000745240189226023
397,0.0174179077148437,0.0000934430515574647
398,0.0171585083007812,0.0000853764914209944
399,0.0169820785522461,0.0000837266850388231
400,0.0165901184082031,0.0000669561554953255
401,0.016242504119873,0.0000689454426254282
402,0.0159106254577637,0.0000847711331314107
403,0.0159268379211426,0.000110683755054124
404,0.0157923698425293,0.000100453191667416
405,0.0154342651367187,0.0000879606243041868
406,0.0152273178100586,0.0000804739524565194
407,0.0148859024047852,0.0000650179311716435
408,0.0146365165710449,0.0000788599860325111
409,0.0145225524902344,0.0000956673673931763
410,0.014091968536377,0.0000805840689631562
411,0.0141124725341797,0.0000691298771188395
412,0.0137014389038086,0.0000834192503978555
413,0.0134859085083008,0.0000939357099116249
414,0.0134649276733398,0.0000715478226707768
415,0.0131683349609375,0.0000797544893440139
416,0.0130276679992676,0.0000629858387983642
417,0.0129098892211914,0.000070758521276663
418,0.0126175880432129,0.0000750499879285783
419,0.0123095512390137,0.0000719487072073993
420,0.0122737884521484,0.0000715414665367377
421,0.0120682716369629,0.0000809640850193984
422,0.0119204521179199,0.0000595063352468893
423,0.0117034912109375,0.0000571896549597318
424,0.0115971565246582,0.0000682027173374906
425,0.0113539695739746,0.0000681893808654551
426,0.0112199783325195,0.0000824652609213821
427,0.011054515838623,0.0000858267147415907
428,0.0108351707458496,0.0000796489354514021
429,0.0108742713928223,0.0000638053732753839
430,0.0106391906738281,0.0000622633211956053
431,0.010373592376709,0.0000664533785782066
432,0.0103859901428223,0.0000455398209671241
433,0.010277271270752,0.0000593772364751237
434,0.0101051330566406,0.0000835540623237973
435,0.0100321769714355,0.0000781096526248084
436,0.00983095169067383,0.0000700382729228262
437,0.00968790054321289,0.0000494441276428822
438,0.00959682464599609,0.0000631606771310402
439,0.00950336456298828,0.0000648831534439522
440,0.0094141960144043,0.0000515701095094994
441,0.0092010498046875,0.0000374377907848599
442,0.00912332534790039,0.0000453622283707629
443,0.00902462005615234,0.0000678534417258993
444,0.00890159606933594,0.0000610500555926484
445,0.00879716873168945,0.0000691545408169088
446,0.00872945785522461,0.0000587845653159589
447,0.00860071182250977,0.000046767735362386
448,0.00862503051757813,0.0000732189628416063
449,0.0083770751953125,0.0000598093332926446
450,0.00820255279541016,0.0000619943322894678
451,0.00821018218994141,0.0000587420028474216
452,0.00817584991455078,0.0000791449138276466
453,0.00816535949707031,0.0000691874120711735
454,0.00802803039550781,0.0000625129695330723
455,0.00786972045898438,0.0000647129689808268
456,0.00774288177490234,0.0000794459933327583
457,0.00760459899902344,0.0000727329081837255
458,0.00762414932250977,0.0000646760659527861
459,0.00757122039794922,0.000060201517420472
460,0.0073857307434082,0.0000584023330469248
461,0.00735044479370117,0.0000660191334733448
462,0.00721073150634766,0.0000731195227307465
463,0.00725030899047852,0.0000672729190389572
464,0.00712013244628906,0.0000534344919446081
465,0.00704479217529297,0.0000761373223552365
466,0.00696086883544922,0.0000877432199688833
467,0.00683403015136719,0.0000807010792103829
468,0.00664758682250977,0.0000704332226354896
469,0.00671863555908203,0.0000604070064673851
470,0.00676631927490234,0.0000586335226018501
471,0.00671005249023438,0.0000841330487396199
472,0.00660419464111328,0.0000753870348117207
473,0.0064849853515625,0.0000832705686681483
474,0.00643634796142578,0.0000638837232832478
475,0.00645589828491211,0.0000660208554795131
476,0.0062255859375,0.000105838516119541
477,0.00632047653198242,0.0000816464415430622
478,0.00622987747192383,0.0000612211374118959
479,0.00613021850585938,0.0000759863613696921
480,0.00588369369506836,0.0000761194020688542
481,0.00589704513549805,0.0000661842417605117
482,0.00598049163818359,0.0000682177177520373
483,0.00592899322509766,0.000069510363278929
484,0.00580215454101563,0.0000524206500777049
485,0.00594043731689453,0.0000630940433770107
486,0.0053858757019043,0.0000765795131678952
487,0.00566005706787109,0.0000908296561690191
488,0.00550985336303711,0.0000854310693369357
489,0.00558853149414063,0.0000841573681645359
490,0.00536060333251953,0.0000947287151556623
491,0.00531721115112305,0.0000851391377283693
492,0.00540781021118164,0.0000648673819246041
493,0.0053257942199707,0.000063970863763336
494,0.00531339645385742,0.0000594881827306774
495,0.00536394119262695,0.0000686148622656022
496,0.00518512725830078,0.0000851231125430979
497,0.00513839721679688,0.0000939768498172078
498,0.00507497787475586,0.0000828682070865329
499,0.00492095947265625,0.0000549925774103443
500,0.00504398345947266,0.0000692104126599645
501,0.00488710403442383,0.0000640774049970337
502,0.00490856170654297,0.0000625002379524649
503,0.00475215911865234,0.0000800845132546065
504,0.00481653213500977,0.0000694072479040609
505,0.00483894348144531,0.0000791118688330039
506,0.00472068786621094,0.0000770899847908907
507,0.00469303131103516,0.000100654439695423
508,0.00472640991210938,0.0000657015161795355
509,0.00459051132202148,0.0000476431674214654
510,0.00448703765869141,0.0000587294216695185
511,0.00453042984008789,0.0000788152828651214
512,0.00440263748168945,0.000066526901269355
513,0.00431203842163086,0.0000781649412002279
514,0.00438785552978516,0.0000851778528123249
515,0.00423955917358398,0.0000990054500942132
516,0.00419902801513672,0.0000744278499946321
517,0.00434398651123047,0.0000770472057797809
518,0.00426959991455078,0.0000757691093471882
519,0.00419378280639648,0.0000871216852089419
520,0.00406980514526367,0.0000850429413208311
521,0.00414800643920898,0.0000852912268180659
522,0.00398063659667969,0.0000813339394923509
523,0.00400733947753906,0.0000839680314275569
524,0.00405073165893555,0.0000774504506477745
525,0.00402212142944336,0.000069740592852414
526,0.00403404235839844,0.0000603250833026274
527,0.00385665893554687,0.0000838989525820888
528,0.00394058227539062,0.000077968343490485
529,0.00380849838256836,0.0000817271624970571
530,0.00374364852905273,0.0000926586746329584
531,0.00382852554321289,0.0000675326675175825
532,0.00376749038696289,0.0000838772690635817
533,0.00365877151489258,0.0000828887830219997
534,0.00364351272583008,0.0000936156554550784
535,0.00356960296630859,0.000100631847627333
536,0.00364208221435547,0.0000829669250386466
537,0.00342416763305664,0.0000840384062970154
538,0.00362110137939453,0.0000737850613932979
539,0.00345230102539062,0.0000621243975179914
540,0.00348281860351562,0.0000592708779455447
541,0.00342655181884766,0.0000781809384905615
542,0.00348138809204102,0.0000790040173952703
543,0.00344562530517578,0.0000799424286326286
544,0.00339555740356445,0.0000565087240868589
545,0.00318241119384766,0.0000551133824968686
546,0.00315713882446289,0.0000701323559221277
547,0.00321340560913086,0.0000575137568790993
548,0.00323104858398437,0.0000487202984883059
549,0.00316524505615234,0.0000623910035468907
550,0.00317192077636719,0.0000616061798076981
551,0.00311517715454102,0.0000887173441280955
552,0.00315475463867187,0.0000854536889814293
553,0.00302457809448242,0.0000769925911531785
554,0.00301170349121094,0.0000879114965650992
555,0.00306129455566406,0.0000807630399838936
556,0.00299549102783203,0.0000882316264149391
557,0.00295209884643555,0.000073054191597769
558,0.00295829772949219,0.0000666020497749282
559,0.0029911994934082,0.0000831120464190685
560,0.00292015075683594,0.0000603891246867679
561,0.00283622741699219,0.0000656218716528215
562,0.00286006927490234,0.0000602807796407446
563,0.00285816192626953,0.0000766863269537911
564,0.00276708602905273,0.0000813115719595821
565,0.00279474258422852,0.0000792755220055405
566,0.00284051895141602,0.0000680023956281281
567,0.00274276733398437,0.000073358572439698
568,0.00262641906738281,0.0000758680736136448
569,0.00265836715698242,0.0000747783444599799
570,0.00266027450561523,0.0000730526353824973
571,0.00258064270019531,0.0000752375904972688
572,0.00255489349365234,0.0000718823119720523
573,0.00266695022583008,0.0000717556749004007
574,0.00260448455810547,0.0000677746485885701
575,0.00247335433959961,0.0000704800162273555
576,0.00252771377563477,0.0000754352767299078
577,0.00243902206420898,0.0000653179886862479
578,0.00242233276367187,0.0000554403945209773
579,0.00244665145874023,0.0000534961565532164
580,0.00244855880737305,0.0000618860419575028
581,0.00240612030029297,0.0000665901000036335
582,0.0023350715637207,0.0000784581895997774
583,0.00235557556152344,0.0000732003281105707
584,0.00242996215820312,0.0000559567948021395
585,0.00232553482055664,0.0000790629944113258
586,0.00224733352661133,0.0000557889286176449
587,0.00234508514404297,0.0000726374981580464
588,0.00221920013427734,0.0000822692664177741
589,0.00223875045776367,0.0000816074442298757
590,0.00224208831787109,0.0000608616837316032
591,0.00218343734741211,0.0000763028854854088
592,0.00224637985229492,0.0000773770225698249
593,0.00214385986328125,0.0000728672084613536
594,0.00221872329711914,0.0000580048443008963
595,0.00217723846435547,0.0000557379602642454
596,0.00211429595947266,0.0000629027559019724
597,0.0020751953125,0.0000732794929904869
598,0.00203275680541992,0.0000843314521428003
599,0.00200557708740234,0.0000711430812895136
600,0.00206232070922852,0.0000654084327678003
601,0.00203132629394531,0.0000588338605575908
602,0.00203371047973633,0.000044537713733046
603,0.00194883346557617,0.00005136246751598
604,0.00194263458251953,0.0000592382614528239
605,0.00192975997924805,0.0000622468858918108
606,0.00196313858032227,0.0000549594904582058
607,0.00195980072021484,0.0000647937307413598
608,0.00191593170166016,0.000068526991170845
609,0.00192594528198242,0.0000769866845485551
610,0.00191450119018555,0.0000752421234738962
611,0.00190162658691406,0.0000698171673311945
612,0.00188779830932617,0.0000675865159603196
613,0.00189733505249023,0.000064827059498463
614,0.00178194046020508,0.0000791564045051893
615,0.00178432464599609,0.0000777054394818694
616,0.00170183181762695,0.0000712947299211762
617,0.00173664093017578,0.0000727110218701817
618,0.00179958343505859,0.0000700853302096818
619,0.00180196762084961,0.0000725497981584744
620,0.00176143646240234,0.0000640969183470139
621,0.00169944763183594,0.0000634551843305509
622,0.00176858901977539,0.0000902873247581894
623,0.00172567367553711,0.0000792798241059935
624,0.00169801712036133,0.0000770029266210617
625,0.001617431640625,0.0000624529265011112
626,0.00167512893676758,0.000060056878153597
627,0.00166845321655273,0.0000648726395237529
628,0.00167274475097656,0.0000784480458618729
629,0.00161457061767578,0.0000856277928713447
630,0.00163793563842773,0.0000637233589019026
631,0.00166845321655273,0.0000565800995351103
632,0.00163936614990234,0.0000655612077419175
633,0.00155973434448242,0.0000599564659461972
634,0.00152683258056641,0.0000755060761665152
635,0.00156736373901367,0.0000740603481811765
636,0.00158977508544922,0.0000837606239797458
637,0.00153875350952148,0.0000651890634541869
638,0.00144767761230469,0.0000907470097424867
639,0.00148725509643555,0.0000853538513183594
640,0.00149869918823242,0.0000807419223347348
641,0.00157737731933594,0.0000684074382965563
642,0.00155258178710937,0.0000644383275771827
643,0.00147056579589844,0.0000734236327401405
644,0.00143003463745117,0.0000686562718592675
645,0.00142288208007812,0.0000724086291960115
646,0.00139665603637695,0.0000765319925221973
647,0.00149106979370117,0.0000668439982057847
648,0.00148916244506836,0.0000715319312766998
649,0.00141096115112305,0.0000650336661808294
650,0.00136756896972656,0.0000779041599975942
651,0.00141096115112305,0.0000760805603012909
652,0.00137996673583984,0.0000762850040918533
653,0.00139713287353516,0.0000741493280205073
654,0.00139427185058594,0.000062277926713328
655,0.00167274475097656,0.0000606249270243035
656,0.00160026550292969,0.0000682310486853322
657,0.000433921813964844,0.0000842572742756614
658,0.0014195442199707,0.0000749271874580171
659,0.00135135650634766,0.0000706813581988822
660,0.00133657455444336,0.0000585753255427434
661,0.00128698348999023,0.000071871240136228
662,0.00123929977416992,0.0000845724169479491
663,0.00117969512939453,0.0000924941182574711
664,0.00123834609985352,0.0000680775853461284
665,0.00125789642333984,0.0000635017490624134
666,0.00124740600585937,0.0000641855406252524
667,0.00116729736328125,0.0000792540080003484
668,0.00118398666381836,0.0000674349576174305
669,0.00121259689331055,0.000075865076593216
670,0.00118255615234375,0.0000716764131122633
671,0.0011601448059082,0.0000637697278126715
672,0.0012211799621582,0.0000587613532458275
673,0.00109100341796875,0.0000750424134719995
674,0.00118923187255859,0.0000729763401811257
675,0.00111532211303711,0.0000900250370035945
676,0.00115489959716797,0.0000761403086595798
677,0.00113725662231445,0.0000628105137904119
678,0.00108528137207031,0.0000542442875693917
679,0.0010676383972168,0.000056383851678005
680,0.00111484527587891,0.0000618474521866624
681,0.00103282928466797,0.0000672255842154583
682,0.00116062164306641,0.0000698904047029845
683,0.00108146667480469,0.0000626836859584254
684,0.00108051300048828,0.0000765958415807394
685,0.00100803375244141,0.0000936132266238754
686,0.000993728637695313,0.0000830093924463199
687,0.000989437103271484,0.0000547833809563899
688,0.000947952270507813,0.0000537029580127758
689,0.000972747802734375,0.0000731195227307465
690,0.00100564956665039,0.0000594642893983896
691,0.00100278854370117,0.0000618768560997453
692,0.000958919525146484,0.0000601703501243144
693,0.000903129577636719,0.0000636912375730187
694,0.000967979431152344,0.0000609494143482243
695,0.000965118408203125,0.0000695005493583757
696,0.000929832458496094,0.0000713951192735636
697,0.00096893310546875,0.0000767885507433845
698,0.000911712646484375,0.0000592248259113104
699,0.0009307861328125,0.000080569959872798
700,0.000972270965576172,0.0000620438258431403
701,0.000931262969970703,0.0000619466344562433
702,0.000902175903320313,0.0000665149379972229
703,0.000865459442138672,0.0000701939281338125
704,0.000951766967773438,0.0000603599377771766
705,0.000855445861816406,0.0000666873430119553
706,0.000864028930664063,0.0000688959566923409
707,0.000966072082519531,0.0000842356829945418
708,0.000779628753662109,0.0000865245955647518
709,0.000905513763427734,0.000078787871612804
710,0.000871181488037109,0.0000585714436828006
711,0.000836849212646484,0.000074984822597881
712,0.000813007354736328,0.0000557654889607998
713,0.000797271728515625,0.0000745087623009667
714,0.000797271728515625,0.0000834069839633416
715,0.000725746154785156,0.0000714396914816882
716,0.000807762145996094,0.0000694219880491386
717,0.000788688659667969,0.0000810679265493523
718,0.000777721405029297,0.0000673674889085745
719,0.000762939453125,0.0000654153848252965
720,0.000783920288085938,0.0000647305344568379
721,0.000760078430175781,0.0000527880486416625
722,0.000737667083740234,0.0000711830201470296
723,0.000756263732910156,0.0000868053201375855
724,0.000688552856445313,0.0000769039444499039
725,0.000722408294677734,0.0000732251733647815
726,0.000643730163574219,0.0000723866448358348
727,0.000637531280517578,0.0000589429364790437
728,0.000657081604003906,0.0000662649260179146
729,0.000643253326416016,0.0000793944607911202
730,0.000662803649902344,0.0000714619671605463
731,0.000635147094726563,0.0000827460179623288
732,0.000584125518798828,0.0000855095471564635
733,0.000493526458740234,0.0000770811359089051
734,0.000548362731933594,0.0000806235612806276
735,0.0005340576171875,0.0000677595500887158
736,0.00048065185546875,0.000055649164050656
737,0.000493049621582031,0.000058838691201442
738,0.000481605529785156,0.0000712899459496718
739,0.000500202178955078,0.0000702214561180369
740,0.000483989715576172,0.0000642032504014427
741,0.000497817993164063,0.0000634766799898161
742,0.000500679016113281,0.0000652553001196137
743,0.000455379486083984,0.0000640472363078326
744,0.000467777252197266,0.0000728609674259722
745,0.000504016876220703,0.0000790198448177548
746,0.000458717346191406,0.0000824100983606615
747,0.000470638275146484,0.0000911370416677065
748,0.000432968139648438,0.0000752028285990594
749,0.00038909912109375,0.0000666242365209747
750,0.000463962554931641,0.0000682626992180473
751,0.000457763671875,0.000084923881278377
752,0.000436782836914063,0.000098616564765043
753,0.000531673431396484,0.0000746581427562686
754,0.000391960144042969,0.0000538773238714213
755,0.000474929809570313,0.0000578163825358235
756,0.000596523284912109,0.0000661945473544953
757,0.000533580780029297,0.0000627724923468171
758,0.000425815582275391,0.0000727360342623457
759,0.000408172607421875,0.0000906918702833031
760,0.000470161437988281,0.0000685916619733868
761,0.000493526458740234,0.0000696345532225372
762,0.000474452972412109,0.0000879476986124587
763,0.00049591064453125,0.0000725419626454796
764,0.000499248504638672,0.0000951478337191537
765,0.000515937805175781,0.0000909622341929837
766,0.000455379486083984,0.0000847671097263379
767,0.000439167022705078,0.0000660879787222233
768,0.000522613525390625,0.0000755256472719325
769,0.000490188598632813,0.0000632056601700954
770,0.000529766082763672,0.0000572244324893959
771,0.000433444976806641,0.0000706620542634686
772,0.000503063201904297,0.0000627181360147758
773,0.000521659851074219,0.0000766284879683886
774,0.000522136688232422,0.0000785219202324684
775,0.000484943389892578,0.0000668184816574225
776,0.000481605529785156,0.0000782521594166045
777,0.000497817993164063,0.0000795503873965177
778,0.000477790832519531,0.0000785204723834407
779,0.000524044036865234,0.0000765007910562587
780,0.000429153442382813,0.0000740710927990481
781,0.000451564788818359,0.000089726512804711
782,0.000460147857666016,0.0000823203803617919
783,0.000432014465332031,0.0000739743350554249
784,0.000477313995361328,0.0000690014837795629
785,0.000512123107910156,0.0000761418017678301
786,0.000482082366943359,0.000074534696699621
787,0.000487804412841797,0.0000844244194775362
788,0.000553607940673828,0.0000893786703471388
789,0.000504493713378906,0.0000627199486514726
790,0.000571727752685547,0.0000805995861099087
791,0.000534534454345703,0.0000669884083894193
792,0.000496864318847656,0.0000761537455799456
793,0.000540733337402344,0.000071576418289035
794,0.000493049621582031,0.0000616320097186084
795,0.000516414642333984,0.0000741815185411913
796,0.00040435791015625,0.0000672813681816839
797,0.000498294830322266,0.0000614306185165942
798,0.000440597534179688,0.0000796760504692285
799,0.000452518463134766,0.0000756955521888139
800,0.000497341156005859,0.0000705670664395384
801,0.000461578369140625,0.0000676806476437641
802,0.000475883483886719,0.0000873458430941176
803,0.000501155853271484,0.0000651785988801642
804,0.000423908233642578,0.0000754171896268513
805,0.000413894653320313,0.0000752813978378627
806,0.000415325164794922,0.0000655421303449086
807,0.000460624694824219,0.0000627253862472738
808,0.000421524047851563,0.000075570792017205
809,0.000369071960449219,0.0000882110079356216
810,0.000390529632568359,0.0000992256765864705
811,0.000381946563720703,0.000104323862796418
812,0.000387191772460937,0.0000729373833116139
813,0.000417232513427734,0.0000714094490887961
814,0.000362873077392578,0.0000634784709661863
815,0.000336170196533203,0.0000687522460635967
816,0.000329971313476562,0.0000692563909215242
817,0.000303745269775391,0.0000781736674007798
818,0.000300884246826172,0.0000774504506477745
819,0.000360488891601562,0.0000715684762078227
820,0.000287532806396484,0.0000780572378505177
821,0.000274658203125,0.0000816227668249622
822,0.000334262847900391,0.0000818369819224805
823,0.000274181365966797,0.0000817813955809185
824,0.0003662109375,0.0000646760659527861
825,0.000259876251220703,0.0000604004190588663
826,0.000156402587890625,0.0000561211203758411
827,0.000130176544189453,0.0000614824150000936
828,0.0002288818359375,0.0000666719982820013
829,0.000136852264404297,0.0000969329137291154
830,0.000176429748535156,0.0000824790457970148
831,0.0000605583190917969,0.0000813059791149244
832,0.000119686126708984,0.0000622432330127318
833,0.000127315521240234,0.0000690591256998073
834,0.000187397003173828,0.0000780761694669574
835,0.000102043151855469,0.0000755331732699056
836,0.000112056732177734,0.0000685535301624662
837,0.0000643730163574219,0.0000749438758725402
838,0.00014495849609375,0.0000883655292637999
839,0.000114917755126953,0.000084451347399718
840,0.0000815391540527344,0.0000858015434797124
841,0.000133514404296875,0.0000912243197904062
842,0.0000591278076171875,0.0000929795777991198
843,0.000126838684082031,0.0000922159176150023
844,0.000140190124511719,0.0000728640880104834
845,0.000160694122314453,0.0000818342035021391
846,0.0000786781311035156,0.0000725654666462623
847,0.000143051147460937,0.0000699473140884442
848,0.000155448913574219,0.000069903416647189
849,0.000150680541992187,0.0000800703161382095
850,0.000165939331054687,0.0000754337696369625
851,0.000143527984619141,0.000069724289560036
852,0.000204563140869141,0.0000760850430556801
853,0.000139236450195312,0.0000948774146506826
854,0.000103950500488281,0.0000889272535948098
855,0.000200748443603516,0.0000880562154533404
856,0.000154495239257812,0.0000760431937379821
857,0.000194072723388672,0.0000747889859264284
858,0.000229835510253906,0.0000824114778746829
859,0.000191688537597656,0.000101650230235068
860,0.000201702117919922,0.0000882960281303612
861,0.000161170959472656,0.000110453437835054
862,0.000202655792236328,0.000102274623270342
863,0.000162601470947266,0.0000802943370804744
864,0.000171661376953125,0.0000955960394755681
865,0.000154972076416016,0.000094211245584601
866,0.000338554382324219,0.0000868864821020289
867,0.000199794769287109,0.0000852045426208424
868,0.000242233276367187,0.0000889758204883914
869,0.000220775604248047,0.0000842167860827088
870,0.000240802764892578,0.0000835050649870596
871,0.000203609466552734,0.0000722813413982792
872,0.000218391418457031,0.0000812108418248844
873,0.000270366668701172,0.0000822582105781249
874,0.000254154205322266,0.0000602496533471455
875,0.000255107879638672,0.0000747190285458338
876,0.000206947326660156,0.0000810328598355328
877,0.000302314758300781,0.000100088108148161
878,0.000267982482910156,0.0000930284732472822
879,0.000288963317871094,0.0000914881398893663
880,0.000295162200927734,0.0000967732759813154
881,0.000192165374755859,0.000100801164716521
882,0.000277519226074219,0.0000826195201540245
883,0.000183582305908203,0.0000896960987550926
884,0.000307083129882812,0.0000843705378500177
885,0.000100135803222656,0.0000981914117094505
886,0.000284194946289062,0.0000743911815110691
887,0.000255107879638672,0.0000878856288297842
888,0.000227451324462891,0.000078559554941176
889,0.000196456909179687,0.0000635196494853376
890,0.000221729278564453,0.000082605758720121
891,0.000204086303710937,0.0000711318943909006
892,0.000216484069824219,0.0000987870343214307
893,0.000195980072021484,0.0000682626992180473
894,0.00025177001953125,0.0000828627193075072
895,0.000305652618408203,0.0000818772584223987
896,0.000268936157226562,0.0000873276191955673
897,0.000196456909179687,0.0000811380145109759
898,0.000274181365966797,0.0000923268059252933
899,0.000284194946289062,0.000078698357958716
900,0.000228404998779297,0.0000826030061582262
901,0.000273704528808594,0.0000911195760113329
902,0.000136852264404297,0.0000762909650220513
903,0.000264167785644531,0.0000918428473621818
904,0.000138759613037109,0.0000825988771433948
905,0.000212192535400391,0.000101913833674565
906,0.000211238861083984,0.000102864286127043
907,0.00009918212890625,0.000088406689337887
908,0.000109195709228516,0.000071277187122554
909,0.000203609466552734,0.0000712085692600232
910,0.000166416168212891,0.0000845011414338248
911,0.000207901000976562,0.0000810328598355328
912,0.000153064727783203,0.0000760925137261341
913,0.0000162124633789062,0.0000978295085685118
914,0.0000457763671875,0.000080097288507828
915,0.0000138282775878906,0.0000806841725595248
916,0.0000576972961425781,0.000102970331811007
917,0.000034332275390625,0.000106380649434756
918,0.00000524520874023438,0.000100063115940981
919,-0.0000748634338378906,0.0000902923612865038
920,-0.0000634193420410156,0.0000929600124187571
921,-0.0000281333923339844,0.0000752768672262351
922,-0.0000123977661132812,0.0000986511432083847
923,-0.000159740447998047,0.0000974545967272135
924,-0.000233173370361328,0.000101192889311756
925,-0.000136375427246094,0.0000912542245018439
926,-0.000344753265380859,0.000107828476143666
927,-0.000307083129882812,0.000090425727070837
928,-0.000288963317871094,0.0000854377227952005
929,-0.000406742095947266,0.0000864457241112437
930,-0.000441074371337891,0.0000866663833016685
931,-0.000490188598632813,0.0000913090243686375
932,-0.000545024871826172,0.000091139536488245
933,-0.000531673431396484,0.0000911495150875511
934,-0.000632286071777344,0.0000948294725482528
935,-0.000806331634521484,0.000083700882240015
936,-0.000768661499023438,0.0000858134676293876
937,-0.000805854797363281,0.0000868288911039793
938,-0.00083160400390625,0.000109065490438031
939,-0.000936985015869141,0.000114581895461033
940,-0.000946998596191406,0.000114434957349044
941,-0.00111055374145508,0.000111516706392774
942,-0.00106525421142578,0.0000991569083499291
943,-0.0011444091796875,0.0000992852371965031
944,-0.00126361846923828,0.000110884890193697
945,-0.00127363204956055,0.0000913339225297003
946,-0.00139856338500977,0.000121272354949589
947,-0.00133943557739258,0.000131423794958788
948,-0.00157546997070312,0.0001327115854017
949,-0.00169801712036133,0.00015254019945627
950,-0.00152492523193359,0.000132567590769231
951,-0.00188779830932617,0.000128837835289397
952,-0.00186586380004883,0.000103124786292292
953,-0.00206089019775391,0.00010971400265219
954,-0.00216150283813477,0.000115734969738454
955,-0.00234270095825195,0.000158275462613867
956,-0.00267839431762695,0.000128622348856058
957,-0.00274896621704102,0.00013775230472769
958,-0.00280952453613281,0.000138565301028534
959,-0.00290679931640625,0.000137332412891732
960,-0.00291776657104492,0.000146014981419582
961,-0.0033116340637207,0.000136542051733681
962,-0.00314617156982422,0.000192892271098483
963,-0.00323247909545898,0.000132862269537709
964,-0.00299453735351562,0.000110319551085809
965,-0.00278377532958984,0.000120123220864987
966,-0.003204345703125,0.000155355273167499
967,-0.00288724899291992,0.00018088162538406
968,-0.00293970108032227,0.000183893534419569
969,-0.00278139114379883,0.000179878246350896
970,-0.00252437591552734,0.000167388181415292
971,-0.00286865234375,0.000126123202996152
972,-0.0024714469909668,0.000136044908692237
973,-0.00255489349365234,0.000118465007473545
974,-0.00237560272216797,0.000163368056925234
975,-0.00209569931030273,0.000202340834966672
976,-0.00216960906982422,0.000173731088677405
977,-0.00210666656494141,0.000133105059222167
978,-0.00204992294311523,0.000143672863657123
979,-0.00169086456298828,0.000181328575956728
980,-0.00157880783081055,0.000144540661387811
981,-0.00176239013671875,0.000187036906007862
982,-0.00179815292358398,0.000182299030175102
983,-0.0017542839050293,0.000225002473496378
984,-0.00160312652587891,0.000160163348065359
985,-0.00109720230102539,0.000216738093898077
986,-0.00114107131958008,0.000191951684958025
987,-0.00099945068359375,0.000210085598953466
988,-0.00155878067016602,0.000173814829642045
989,-0.000879287719726563,0.000241601676235465
990,-0.000758171081542969,0.00023161134795163
991,-0.000576019287109375,0.000201082857179375
992,-0.000760555267333984,0.00021484570068861
993,-0.000762462615966797,0.000134704598269961
994,-0.000776290893554688,0.000242968068072077
995,0.000287532806396484,0.000174248590020084
996,-0.000127315521240234,0.000212453296184331
997,-0.000242233276367187,0.000189130713055097
998,-0.000268936157226562,0.00023376890009308
999,-0.000141620635986328,0.000238285027292283
1000,0.000206470489501953,0.000201715081161318
1001,0.000264167785644531,0.000197163948386054
1002,0.000243186950683594,0.00023161134795163
1003,0.000019073486328125,0.000223851558156027
1004,0.000114917755126953,0.000267056055041308
1005,0.000260829925537109,0.000228913622874107
1006,0.00034332275390625,0.000157023569457149
1007,0.000712394714355469,0.000203452507645125
1008,0.0000824928283691406,0.000205370171397936
1009,0.000465869903564453,0.000195905225620487
1010,0.000504970550537109,0.000220820399738914
1011,0.000346660614013672,0.000314423399388018
1012,0.000969409942626953,0.000274280447264929
1013,0.000628471374511719,0.000226497148212077
1014,0.000884532928466797,0.000218055917160458
1015,0.000435829162597656,0.000227922176138844
1016,0.000562191009521484,0.000346371570860356
1017,0.00135898590087891,0.000238372798339
1018,0.00139665603637695,0.000222706946605814
1019,0.000959396362304688,0.000206090762948745
1020,0.000854969024658203,0.00023200369704021
1021,0.00121831893920898,0.000322223393245117
1022,0.00107336044311523,0.000263690517349305
1023,0.00127458572387695,0.000190706250905669
1024,0.000818252563476563,0.000313676226094045
1025,0.000498771667480469,0.000496101342728851
1026,0.000537872314453125,0.000338848416154807
1027,0.00161933898925781,0.000254779229638009
1028,0.000897407531738281,0.000329071538076285
1029,0.000901222229003906,0.000353914693574833
1030,0.00109100341796875,0.000235115052631172
1031,0.000672340393066406,0.000280042691646249
1032,0.000913619995117188,0.00042275211043493
1033,0.000996112823486328,0.000386792244574319
1034,0.000669479370117188,0.000316929952613826
1035,0.000930309295654297,0.00033154415943623
1036,0.000400543212890625,0.000331099461450637
1037,0.00126075744628906,0.000457811353107552
1038,0.000532150268554688,0.000409871425393234
1039,0.000577926635742188,0.000300430115341231
1040,0.000197410583496094,0.000373187760642126
1041,0.00106430053710937,0.000472730115564927
1042,0.00109243392944336,0.000450796513034588
1043,-0.000041961669921875,0.000397360738102539
1044,0.000295162200927734,0.000329358849994745
1045,0.000596046447753906,0.00036473772634282
1046,0.000864982604980469,0.000538642818408617
1047,0.00145959854125977,0.000397781661512502
1048,0.00133085250854492,0.000530681840102508
1049,0.000992774963378906,0.000593415366005338
1050,0.00119113922119141,0.000633710663124142
1051,0.000207901000976562,0.000512917220819933
1052,0.000985622406005859,0.000377539414713025
1053,0.000796794891357422,0.0004539730161824
1054,0.0000100135803222656,0.000478398627458461
1055,0.00111103057861328,0.00058252563137624
1056,-0.000139236450195312,0.000485659055283626
1057,0.000101566314697266,0.000657424090064947
1058,0.000530242919921875,0.000626365856725922
1059,-0.000218868255615234,0.000389033667351078
1060,0.0000252723693847656,0.000448944653460196
1061,-0.000577449798583984,0.00063871976909069
1062,0.000478267669677734,0.00061743912667789
1063,0.000281333923339844,0.000827129822063283
1064,0.0014338493347168,0.0008013043788327
1065,0.000748157501220703,0.000865927876839224
1066,0.000775337219238281,0.00107086372973232
1067,0.00125455856323242,0.000678405058152988
1068,0.000712871551513672,0.000795727928011012
1069,0.00114154815673828,0.000846811241436639
1070,0.000159740447998047,0.001065523545548
1071,-0.000809669494628906,0.000832426032356253
1072,0.000670909881591797,0.000686836216192184
1073,-0.000202655792236328,0.000825262828750953
1074,0.002288818359375,0.000922447121012106
1075,0.00272321701049805,0.000854372969893909
1076,-0.00111961364746094,0.000996388410480622
1077,-0.0000925064086914063,0.00117142887365601
1078,0.000746250152587891,0.000891154431999803
1079,0.00282764434814453,0.000665246455026325
1080,-0.000887870788574219,0.000778516068724005
1081,-0.00168371200561523,0.00107898629552477
1082,-0.000645637512207031,0.00128832893740206
1083,0.000323295593261719,0.00135659559747962
1084,0.00201988220214844,0.00160384318157604
1085,0.000924587249755859,0.00134599905123729
1086,-0.00141477584838867,0.00135547955231114
1087,0.000814437866210938,0.00233015248642835
1088,0.00263309478759766,0.00174748113204187
1089,0.00114917755126953,0.00162393235245362
1090,-0.000517845153808594,0.00118095535710995
1091,-0.00278997421264648,0.00116931516489668
1092,0.000408172607421875,0.00154889862554315
1093,-0.00155067443847656,0.00214786088314811
1094,0.00313711166381836,0.00184517817626118
1095,-0.00077056884765625,0.00183032339115625
1096,0.00212192535400391,0.00191234696639269
1097,-0.00436258316040039,0.00216744640003026
1098,0.0006561279296875,0.00209245794555375
1099,0.00514459609985352,0.00260147810274986
1100,0.00258207321166992,0.00255729292787312
