Wavelength (nm),Absorbance (AU),Std.Dev.
190,0.203027725219727,0.0000832268685503823
191,0.202397346496582,0.0000808305793859062
192,0.20180082321167,0.0000597494274293418
193,0.201423168182373,0.0000514840618199407
194,0.201075077056885,0.000051394552120084
195,0.200800895690918,0.0000553398232247348
196,0.200771808624268,0.0000439945270711087
197,0.200753688812256,0.0000558602061842346
198,0.200624942779541,0.0000478408132979737
199,0.200464248657227,0.0000416113852439338
200,0.200193881988525,0.0000441415757728559
201,0.199786186218262,0.0000528655230912405
202,0.19930362701416,0.0000378162231284433
203,0.198701858520508,0.0000383023732603946
204,0.19789457321167,0.000040729821212888
205,0.196913719177246,0.0000309577137720669
206,0.195653438568115,0.0000329690742280758
207,0.194127082824707,0.0000497524222296035
208,0.192483425140381,0.0000489379905946654
209,0.190696716308594,0.0000504704595381351
210,0.188680171966553,0.0000339267208629496
211,0.186584949493408,0.0000345517797358499
212,0.184418678283691,0.0000430779555240257
213,0.182154178619385,0.0000358881343141182
214,0.179966926574707,0.0000295595773484485
215,0.177780151367187,0.0000336051811854612
216,0.175539493560791,0.0000309824920608796
217,0.173316955566406,0.0000312701213819777
218,0.171220779418945,0.0000318063252430362
219,0.16903018951416,0.0000274025831474201
220,0.166972160339355,0.0000326424552775346
221,0.164968013763428,0.0000362850832664614
222,0.162916660308838,0.0000291631828337616
223,0.160860061645508,0.0000296613218757721
224,0.158955574035645,0.0000353913087437849
225,0.156964302062988,0.0000297292767849686
226,0.154988288879395,0.0000390991931738057
227,0.153069019317627,0.0000375719238792653
228,0.151071548461914,0.0000339786209326081
229,0.14909839630127,0.0000264784200478277
230,0.147116184234619,0.0000259684789630659
231,0.145182132720947,0.0000388454038089323
232,0.143270969390869,0.0000470488726461919
233,0.141260147094727,0.0000333351465469996
234,0.13943338394165,0.0000303536909552266
235,0.137487888336182,0.0000331907435518167
236,0.135581970214844,0.0000303204322732353
237,0.133841991424561,0.0000285749416486907
238,0.132071018218994,0.0000353567598570187
239,0.130344390869141,0.0000252577451462883
240,0.128748416900635,0.0000262493333576547
241,0.1271071434021,0.0000333700850385975
242,0.125552654266357,0.0000329060828097106
243,0.1241774559021,0.0000312064328612445
244,0.122750282287598,0.0000325089655858217
245,0.121438503265381,0.0000391289852541037
246,0.120243072509766,0.0000327485081132998
247,0.119059562683105,0.0000313146262753972
248,0.118063926696777,0.0000448847908680074
249,0.117083072662354,0.0000379797129664228
250,0.116114616394043,0.0000403934833231876
251,0.115327835083008,0.0000411836609830742
252,0.114470958709717,0.0000386017277076716
253,0.113711833953857,0.0000482136367731566
254,0.112963199615479,0.0000423271883740811
255,0.112207889556885,0.000035241621113249
256,0.111507892608643,0.0000231204565475476
257,0.11077880859375,0.0000340805160991275
258,0.110051155090332,0.0000437197530026592
259,0.109314441680908,0.0000395746115136078
260,0.108539581298828,0.0000326215518406649
261,0.107749462127686,0.0000386458793036058
262,0.106895923614502,0.0000591364592713719
263,0.106016635894775,0.0000485344339370707
264,0.105077266693115,0.0000452128635354185
265,0.104166507720947,0.0000525603477598395
266,0.10313081741333,0.00004076051332434
267,0.102280616760254,0.000041377130551413
268,0.101213455200195,0.0000489170784119879
269,0.100088596343994,0.0000536001872763795
270,0.0989980697631836,0.0000632488137892579
271,0.0979466438293457,0.0000741094537176686
272,0.0968546867370606,0.0000738435879713303
273,0.0958099365234375,0.0000718965446841949
274,0.0946025848388672,0.0000534419380004359
275,0.093411922454834,0.0000428755893948822
276,0.0922093391418457,0.0000377025645739415
277,0.091153621673584,0.000043797694150227
278,0.0900211334228516,0.0000429457980291178
279,0.0888605117797852,0.0000499417213637509
280,0.0877814292907715,0.0000452920003957524
281,0.0867075920104981,0.0000461867927335121
282,0.0855765342712402,0.0000349866571959746
283,0.0844817161560059,0.0000416564406492428
284,0.0833759307861328,0.0000522240101576044
285,0.0822458267211914,0.0000440694026371854
286,0.0811972618103027,0.0000370807963617839
287,0.0801177024841309,0.0000524824228129696
288,0.0790529251098633,0.0000328620034617129
289,0.0779991149902344,0.0000410086886768768
290,0.0769181251525879,0.0000390082232290189
291,0.0758795738220215,0.0000273776792496847
292,0.0749311447143555,0.0000248950556504578
293,0.0738792419433594,0.0000354611070334641
294,0.072843074798584,0.0000334015835250528
295,0.0719094276428223,0.0000373138406168091
296,0.0710225105285645,0.0000511517601863611
297,0.0699973106384277,0.0000483196294096802
298,0.0690970420837402,0.0000422888968971748
299,0.0681939125061035,0.00003155783101611
300,0.0672698020935059,0.0000388914712047158
301,0.0663619041442871,0.0000412153943234368
302,0.0654668807983398,0.000045661982039925
303,0.0645575523376465,0.0000574583829169925
304,0.0637083053588867,0.0000395422801897443
305,0.062889575958252,0.0000426129442248305
306,0.0620493888854981,0.0000375651151098936
307,0.061244010925293,0.0000423009926871625
308,0.0603866577148438,0.0000401733537098418
309,0.0595378875732422,0.0000453998058133832
310,0.0587582588195801,0.0000445109033942764
311,0.0579895973205566,0.000052638157347605
312,0.0572576522827148,0.0000469630136575513
313,0.0564522743225098,0.000055071079251269
314,0.0557670593261719,0.0000620328306882836
315,0.0549092292785645,0.0000509769922282661
316,0.054286003112793,0.0000405311584472656
317,0.0535402297973633,0.0000404173993624268
318,0.0527858734130859,0.0000350037125680222
319,0.0521588325500488,0.000044728748811307
320,0.0515894889831543,0.0000663403712823436
321,0.0508055686950684,0.0000506368733036838
322,0.0501680374145508,0.0000483431517698553
323,0.0495128631591797,0.0000418938826172308
324,0.0489096641540527,0.0000432649255527663
325,0.048302173614502,0.0000486116715293921
326,0.0476999282836914,0.0000664875852920477
327,0.0469112396240234,0.0000523924488527538
328,0.0463876724243164,0.0000631714759816815
329,0.0457653999328613,0.0000410758610211217
330,0.0450859069824219,0.000052744958108673
331,0.0444560050964356,0.0000441596006258988
332,0.0438990592956543,0.0000366436248251999
333,0.0432615280151367,0.0000504918541539845
334,0.0426316261291504,0.0000594556854482053
335,0.0420475006103516,0.0000446677064781074
336,0.0414633750915527,0.0000365177574129978
337,0.0408806800842285,0.0000618621558902132
338,0.0403652191162109,0.0000529557666933366
339,0.0397524833679199,0.0000534568270005856
340,0.0392489433288574,0.0000419758913476351
341,0.0387201309204102,0.0000378462741687295
342,0.0381321907043457,0.0000404981871741303
343,0.0376038551330566,0.0000427514496436268
344,0.037053108215332,0.0000450920069707604
345,0.0364279747009277,0.0000463526433561326
346,0.0359272956848145,0.0000307763202556388
347,0.0353870391845703,0.0000388293039065095
348,0.0347857475280762,0.0000578812354810979
349,0.0342884063720703,0.0000528020454933794
350,0.0338358879089355,0.0000555233822681675
351,0.033228874206543,0.0000622085199634569
352,0.0328307151794434,0.00004522920470186
353,0.0323801040649414,0.000035103441911935
354,0.031886100769043,0.0000457713998642596
355,0.0313491821289062,0.0000679154060581353
356,0.030940055847168,0.0000664311347688544
357,0.0303926467895508,0.000063048980703688
358,0.0298871994018555,0.0000742887195364016
359,0.0294351577758789,0.0000640401357272888
360,0.0289664268493652,0.0000399399156670474
361,0.0284671783447266,0.000040671162865715
362,0.0279989242553711,0.0000530212044674593
363,0.0274524688720703,0.0000769748699795926
364,0.0270576477050781,0.0000746520514461164
365,0.0266127586364746,0.0000699180521898994
366,0.0262312889099121,0.0000692399736187164
367,0.0256776809692383,0.0000534206608016786
368,0.0253448486328125,0.0000643624191038547
369,0.0249271392822266,0.0000779800075407396
370,0.0244283676147461,0.0000704832422264979
371,0.0240178108215332,0.0000865640043430706
372,0.0236477851867676,0.0000676319172350711
373,0.0233173370361328,0.0000696867775127861
374,0.0229206085205078,0.0000563172744258602
375,0.0224928855895996,0.0000715192156190974
376,0.0221662521362305,0.0000645211951508195
377,0.0217442512512207,0.0000673489231644949
378,0.0213642120361328,0.0000691101398230428
379,0.0209865570068359,0.0000547273216937936
380,0.020695686340332,0.0000711798258631021
381,0.0203337669372559,0.0000898809584311273
382,0.0200157165527344,0.000103531878219922
383,0.0196347236633301,0.0000832732991640639
384,0.0192813873291016,0.0000893175950000964
385,0.0189728736877441,0.0000943294302685829
386,0.0186176300048828,0.0000699765637506262
387,0.0185065269470215,0.0000631552770132883
388,0.0180983543395996,0.0000778749681953186
389,0.0175609588623047,0.0000926169492035414
390,0.0174965858459473,0.0000749196005861726
391,0.0170755386352539,0.0000698546093589192
392,0.0168204307556152,0.0000538308815336167
393,0.0165066719055176,0.0000696100595989597
394,0.016289234161377,0.000075987857502899
395,0.0159616470336914,0.0000838379533921042
396,0.0157599449157715,0.000103878293638204
397,0.0153145790100098,0.0000998310720268382
398,0.0151023864746094,0.0000737511563567175
399,0.0149154663085937,0.0000782957320907403
400,0.0145001411437988,0.0000604013601612114
401,0.0143246650695801,0.0000790888728674478
402,0.0140595436096191,0.000081846705650921
403,0.0139350891113281,0.000101560717862798
404,0.0138792991638184,0.000100877828179126
405,0.0134167671203613,0.000073437566734186
406,0.0132632255554199,0.0000895844922318831
407,0.0131192207336426,0.0000774122767394282
408,0.0128574371337891,0.0000831435015770961
409,0.0127372741699219,0.0000875746200260111
410,0.0122237205505371,0.0000874577065895872
411,0.012115478515625,0.0000796089596441833
412,0.0119147300720215,0.0000770191652683829
413,0.0117225646972656,0.0000917611134904855
414,0.0116062164306641,0.0000700187916912808
415,0.0113601684570312,0.0000921123014197325
416,0.0111823081970215,0.0000785146807203399
417,0.0110578536987305,0.0000945076331243199
418,0.0107913017272949,0.0000831421342089866
419,0.0105810165405273,0.0000825162534584734
420,0.0105280876159668,0.0000787084694370708
421,0.0102858543395996,0.0000771607393139868
422,0.0101947784423828,0.0000561545351497496
423,0.00997018814086914,0.0000577612986922582
424,0.00974464416503906,0.0000696508775196465
425,0.00963449478149414,0.0000477575683883828
426,0.00958681106567383,0.0000585753255427434
427,0.00944280624389648,0.0000657049767950697
428,0.00907993316650391,0.0000643376853907882
429,0.00912809371948242,0.0000554731946389308
430,0.00892448425292969,0.000055614423552297
431,0.0087127685546875,0.0000482313183881563
432,0.00872325897216797,0.0000642899577866332
433,0.00858306884765625,0.0000670901578405821
434,0.00850057601928711,0.0000711941990121423
435,0.00831890106201172,0.0000780674323683083
436,0.00807476043701172,0.0000844836495769359
437,0.00806808471679688,0.0000588773220842076
438,0.00800418853759766,0.0000590152206943404
439,0.00785589218139648,0.00004852037752882
440,0.00769710540771484,0.0000567095518009892
441,0.00762557983398438,0.0000463072470905486
442,0.0074925422668457,0.0000464347344584651
443,0.00745725631713867,0.0000856344310449665
444,0.00726222991943359,0.0000729498517733165
445,0.00726985931396484,0.0000657361141367409
446,0.00714635848999023,0.000062122567504072
447,0.00699996948242188,0.0000560491604465349
448,0.00699949264526367,0.0000619558099683367
449,0.00686359405517578,0.0000698155389614416
450,0.00666522979736328,0.0000783189609381539
451,0.00660562515258789,0.0000722341408481564
452,0.00657987594604492,0.0000593532984802
453,0.00647640228271484,0.0000492356013544876
454,0.00642538070678711,0.0000532383935824289
455,0.00631427764892578,0.0000605085498820179
456,0.00626993179321289,0.0000870590265120435
457,0.00601100921630859,0.000063494587480225
458,0.00610113143920898,0.000062296178795052
459,0.0060114860534668,0.0000429596936692274
460,0.00594234466552734,0.0000464604346494985
461,0.00589656829833984,0.0000558947939206124
462,0.00569963455200195,0.0000654883368716159
463,0.00563716888427734,0.000061219280397035
464,0.00567245483398438,0.0000528461651270128
465,0.00552558898925781,0.0000741631256688375
466,0.00549077987670898,0.0000798841008899127
467,0.00544261932373047,0.0000764680901512101
468,0.00530624389648438,0.000072361511674247
469,0.00533485412597656,0.0000732624254479262
470,0.00520467758178711,0.0000686728287051588
471,0.00517511367797852,0.0000716684821121713
472,0.00522804260253906,0.0000672154367021224
473,0.00491666793823242,0.0000841951844186688
474,0.00497055053710938,0.0000581692474689888
475,0.00496244430541992,0.0000434170641138034
476,0.00483512878417969,0.00007134573899083
477,0.00483131408691406,0.0000563959481886769
478,0.00474834442138672,0.0000559567948021395
479,0.00467681884765625,0.0000695545087855967
480,0.00445413589477539,0.000072593661401997
481,0.00450038909912109,0.0000637768584990197
482,0.00447940826416016,0.0000597265903432371
483,0.00445222854614258,0.000070067484614265
484,0.00438356399536133,0.000064066758846544
485,0.00455951690673828,0.0000529342940760021
486,0.00391578674316406,0.0000743529659443841
487,0.00429773330688477,0.0000852258884496609
488,0.00411891937255859,0.000065762050659406
489,0.00409173965454102,0.0000759160098494356
490,0.00404024124145508,0.0000983741753419811
491,0.00396013259887695,0.0000755166150843091
492,0.00395965576171875,0.0000592152272295548
493,0.00394964218139648,0.0000485367762760088
494,0.00383758544921875,0.0000439247006019796
495,0.00385761260986328,0.0000744645004215707
496,0.00380849838256836,0.000090241983354062
497,0.00371551513671875,0.0000813954185139735
498,0.00356197357177734,0.0000903225745586515
499,0.0035395622253418,0.0000710231299627671
500,0.00353479385375977,0.0000679338169873538
501,0.00348377227783203,0.0000599299138769721
502,0.00347137451171875,0.0000712436843300462
503,0.00329685211181641,0.0000803750015035341
504,0.00345611572265625,0.0000665388623905655
505,0.0034031867980957,0.0000778209344934285
506,0.00328350067138672,0.0000659950206691013
507,0.00327014923095703,0.000072000831940372
508,0.00323200225830078,0.0000629154060289785
509,0.00321483612060547,0.0000634049994520289
510,0.00309133529663086,0.0000634713067574884
511,0.00305747985839844,0.0000755963620724582
512,0.00308704376220703,0.0000717794363696431
513,0.00291109085083008,0.0000626709890587853
514,0.0030055046081543,0.0000743575528494118
515,0.00288629531860352,0.0000719487072073993
516,0.00281953811645508,0.0000600351048661397
517,0.00291061401367187,0.0000563949402452224
518,0.00281953811645508,0.0000690788775714191
519,0.00277948379516602,0.0000953721998930037
520,0.00262975692749023,0.0000807419223347348
521,0.00276803970336914,0.0000633619522055717
522,0.00259923934936523,0.0000701728700358912
523,0.0026545524597168,0.0000656997858034128
524,0.00260734558105469,0.000046057384913254
525,0.00257158279418945,0.0000502820204853685
526,0.00256061553955078,0.0000739328286869595
527,0.00238609313964844,0.000080569959872798
528,0.00244379043579102,0.0000700626168448192
529,0.00239038467407227,0.0000689784135242691
530,0.00234413146972656,0.000072862527734934
531,0.00240612030029297,0.0000648042574638156
532,0.00242424011230469,0.0000625820386333784
533,0.00231599807739258,0.0000626165446135691
534,0.00220012664794922,0.0000829847365974561
535,0.00224399566650391,0.0000780950964940425
536,0.00220823287963867,0.0000654049564619454
537,0.00208520889282227,0.0000590537360978166
538,0.00215530395507812,0.0000640791791834862
539,0.00206851959228516,0.0000583818900150704
540,0.00207710266113281,0.0000409636146448412
541,0.00201559066772461,0.0000723960675219445
542,0.00207424163818359,0.0000773344023393427
543,0.00200986862182617,0.0000462876024838355
544,0.00197696685791016,0.0000422054761475468
545,0.00184249877929687,0.0000373724449939914
546,0.00183010101318359,0.0000515513677663406
547,0.00183010101318359,0.0000494429779799711
548,0.00187253952026367,0.0000477611390032129
549,0.00176429748535156,0.0000390730155447923
550,0.00176906585693359,0.0000536500079910141
551,0.00174236297607422,0.0000763431033076097
552,0.00177574157714844,0.0000683509100841539
553,0.00160551071166992,0.0000628177533609512
554,0.00165843963623047,0.0000745712946133774
555,0.00166797637939453,0.0000639815258702069
556,0.00162887573242187,0.0000798043648503322
557,0.00159502029418945,0.0000580596970822587
558,0.00158071517944336,0.000048318452991079
559,0.00152683258056641,0.0000507322019941937
560,0.00149250030517578,0.0000409455711387773
561,0.00146341323852539,0.0000611988495145204
562,0.0015110969543457,0.0000487995716144588
563,0.00147676467895508,0.0000568836951615543
564,0.00144338607788086,0.0000759953377271139
565,0.00143527984619141,0.0000513879155696911
566,0.00138998031616211,0.0000496357478060434
567,0.00139665603637695,0.0000590094412155833
568,0.00129461288452148,0.0000617444282195298
569,0.00129461288452148,0.0000728859283610744
570,0.00127363204956055,0.0000595063352468893
571,0.00127601623535156,0.0000485543402162273
572,0.00124740600585937,0.0000502084847375333
573,0.00130510330200195,0.000047330741989794
574,0.00124168395996094,0.0000509613787187179
575,0.00113201141357422,0.0000521946136332389
576,0.00127696990966797,0.0000519654063430812
577,0.00116539001464844,0.0000445287787470385
578,0.00113868713378906,0.0000386664661286362
579,0.00119352340698242,0.0000369664143434797
580,0.00115203857421875,0.0000492032642136862
581,0.00111865997314453,0.0000544983360798953
582,0.00107145309448242,0.0000571558508110118
583,0.00107431411743164,0.0000553634430993277
584,0.00109338760375977,0.0000505807136771245
585,0.00106477737426758,0.0000475057619201271
586,0.000983715057373047,0.0000437509461236994
587,0.00103521347045898,0.0000584276335572877
588,0.000964164733886719,0.0000624529265011112
589,0.000974178314208984,0.0000641022391388171
590,0.000979423522949219,0.0000608028147035089
591,0.000907421112060547,0.0000615858772777376
592,0.000944137573242188,0.0000676033348024265
593,0.000840663909912109,0.0000632362303590285
594,0.000950336456298828,0.0000580508849522912
595,0.000884056091308594,0.000052932146335183
596,0.000855445861816406,0.0000623034781305736
597,0.000841617584228516,0.0000522794918267706
598,0.000788211822509766,0.0000679321434727025
599,0.000741004943847656,0.0000523305699093588
600,0.000767707824707031,0.000040387853961677
601,0.000739097595214844,0.0000366451760422532
602,0.000781536102294922,0.0000422027824102357
603,0.000727176666259766,0.000039785196261902
604,0.000703334808349609,0.0000474470943321447
605,0.000676631927490234,0.000052540877358075
606,0.000618457794189453,0.0000338604748700088
607,0.000652790069580078,0.0000484406475036632
608,0.000652790069580078,0.000067677288052407
609,0.000714302062988281,0.0000620639785679568
610,0.000639915466308594,0.0000567285934550275
611,0.000597953796386719,0.0000622231383445689
612,0.000559329986572266,0.000054044816909152
613,0.000585556030273438,0.000055031842328475
614,0.000511646270751953,0.0000729950320935384
615,0.00049591064453125,0.0000651437048261187
616,0.000410079956054688,0.0000551360684187403
617,0.000485897064208984,0.0000541918664748206
618,0.000478744506835938,0.0000507613256028685
619,0.000520706176757813,0.0000655126361678909
620,0.000492572784423828,0.0000655872134315105
621,0.000370025634765625,0.0000559943684447325
