Wavelength (nm),Absorbance (AU),Std.Dev.
190,0.203027725219727,0.0000832268685503823
191,0.202397346496582,0.0000808305793859062
192,0.20180082321167,0.0000597494274293418
193,0.201423168182373,0.0000514840618199407
194,0.201075077056885,0.000051394552120084
195,0.200800895690918,0.0000553398232247348
196,0.200771808624268,0.0000439945270711087
197,0.200753688812256,0.0000558602061842346
198,0.200624942779541,0.0000478408132979737
199,0.200464248657227,0.0000416113852439338
200,0.200193881988525,0.0000441415757728559
201,0.199786186218262,0.0000528655230912405
202,0.19930362701416,0.0000378162231284433
203,0.198701858520508,0.0000383023732603946
204,0.19789457321167,0.000040729821212888
205,0.196913719177246,0.0000309577137720669
206,0.195653438568115,0.0000329690742280758
207,0.194127082824707,0.0000497524222296035
208,0.192483425140381,0.0000489379905946654
209,0.190696716308594,0.0000504704595381351
210,0.188680171966553,0.0000339267208629496
211,0.186584949493408,0.0000345517797358499
212,0.184418678283691,0.0000430779555240257
213,0.182154178619385,0.0000358881343141182
214,0.179966926574707,0.0000295595773484485
215,0.177780151367187,0.0000336051811854612
216,0.175539493560791,0.0000309824920608796
217,0.173316955566406,0.0000312701213819777
218,0.171220779418945,0.0000318063252430362
219,0.16903018951416,0.0000274025831474201
220,0.166972160339355,0.0000326424552775346
221,0.164968013763428,0.0000362850832664614
222,0.162916660308838,0.0000291631828337616
223,0.160860061645508,0.0000296613218757721
224,0.158955574035645,0.0000353913087437849
225,0.156964302062988,0.0000297292767849686
226,0.154988288879395,0.0000390991931738057
227,0.153069019317627,0.0000375719238792653
228,0.151071548461914,0.0000339786209326081
229,0.14909839630127,0.0000264784200478277
230,0.147116184234619,0.0000259684789630659
231,0.145182132720947,0.0000388454038089323
232,0.143270969390869,0.0000470488726461919
233,0.141260147094727,0.0000333351465469996
234,0.13943338394165,0.0000303536909552266
235,0.137487888336182,0.0000331907435518167
236,0.135581970214844,0.0000303204322732353
237,0.133841991424561,0.0000285749416486907
238,0.132071018218994,0.0000353567598570187
239,0.130344390869141,0.0000252577451462883
240,0.128748416900635,0.0000262493333576547
241,0.1271071434021,0.0000333700850385975
242,0.125552654266357,0.0000329060828097106
243,0.1241774559021,0.0000312064328612445
244,0.122750282287598,0.0000325089655858217
245,0.121438503265381,0.0000391289852541037
246,0.120243072509766,0.0000327485081132998
247,0.119059562683105,0.0000313146262753972
248,0.118063926696777,0.0000448847908680074
249,0.117083072662354,0.0000379797129664228
250,0.116114616394043,0.0000403934833231876
251,0.115327835083008,0.0000411836609830742
252,0.114470958709717,0.0000386017277076716
253,0.113711833953857,0.0000482136367731566
254,0.112963199615479,0.0000423271883740811
255,0.112207889556885,0.000035241621113249
256,0.111507892608643,0.0000231204565475476
257,0.11077880859375,0.0000340805160991275
258,0.110051155090332,0.0000437197530026592
259,0.109314441680908,0.0000395746115136078
260,0.108539581298828,0.0000326215518406649
261,0.107749462127686,0.0000386458793036058
262,0.106895923614502,0.0000591364592713719
263,0.106016635894775,0.0000485344339370707
264,0.105077266693115,0.0000452128635354185
265,0.104166507720947,0.0000525603477598395
266,0.10313081741333,0.00004076051332434
267,0.102280616760254,0.000041377130551413
268,0.101213455200195,0.0000489170784119879
269,0.100088596343994,0.0000536001872763795
270,0.0989980697631836,0.0000632488137892579
271,0.0979466438293457,0.0000741094537176686
272,0.0968546867370606,0.0000738435879713303
273,0.0958099365234375,0.0000718965446841949
274,0.0946025848388672,0.0000534419380004359
275,0.093411922454834,0.0000428755893948822
276,0.0922093391418457,0.0000377025645739415
277,0.091153621673584,0.000043797694150227
278,0.0900211334228516,0.0000429457980291178
279,0.0888605117797852,0.0000499417213637509
280,0.0877814292907715,0.0000452920003957524
281,0.0867075920104981,0.0000461867927335121
282,0.0855765342712402,0.0000349866571959746
283,0.0844817161560059,0.0000416564406492428
284,0.0833759307861328,0.0000522240101576044
285,0.0822458267211914,0.0000440694026371854
286,0.0811972618103027,0.0000370807963617839
287,0.0801177024841309,0.0000524824228129696
288,0.0790529251098633,0.0000328620034617129
289,0.0779991149902344,0.0000410086886768768
290,0.0769181251525879,0.0000390082232290189
291,0.0758795738220215,0.0000273776792496847
292,0.0749311447143555,0.0000248950556504578
293,0.0738792419433594,0.0000354611070334641
294,0.072843074798584,0.0000334015835250528
295,0.0719094276428223,0.0000373138406168091
296,0.0710225105285645,0.0000511517601863611
297,0.0699973106384277,0.0000483196294096802
298,0.0690970420837402,0.0000422888968971748
299,0.0681939125061035,0.00003155783101611
300,0.0672698020935059,0.0000388914712047158
301,0.0663619041442871,0.0000412153943234368
302,0.0654668807983398,0.000045661982039925
303,0.0645575523376465,0.0000574583829169925
304,0.0637083053588867,0.0000395422801897443
305,0.062889575958252,0.0000426129442248305
306,0.0620493888854981,0.0000375651151098936
307,0.061244010925293,0.0000423009926871625
308,0.0603866577148438,0.0000401733537098418
309,0.0595378875732422,0.0000453998058133832
310,0.0587582588195801,0.0000445109033942764
311,0.0579895973205566,0.000052638157347605
312,0.0572576522827148,0.0000469630136575513
313,0.0564522743225098,0.000055071079251269
314,0.0557670593261719,0.0000620328306882836
315,0.0549092292785645,0.0000509769922282661
316,0.054286003112793,0.0000405311584472656
317,0.0535402297973633,0.0000404173993624268
318,0.0527858734130859,0.0000350037125680222
319,0.0521588325500488,0.000044728748811307
320,0.0515894889831543,0.0000663403712823436
321,0.0508055686950684,0.0000506368733036838
322,0.0501680374145508,0.0000483431517698553
323,0.0495128631591797,0.0000418938826172308
324,0.0489096641540527,0.0000432649255527663
325,0.048302173614502,0.0000486116715293921
326,0.0476999282836914,0.0000664875852920477
327,0.0469112396240234,0.0000523924488527538
328,0.0463876724243164,0.0000631714759816815
329,0.0457653999328613,0.0000410758610211217
330,0.0450859069824219,0.000052744958108673
331,0.0444560050964356,0.0000441596006258988
332,0.0438990592956543,0.0000366436248251999
333,0.0432615280151367,0.0000504918541539845
334,0.0426316261291504,0.0000594556854482053
335,0.0420475006103516,0.0000446677064781074
336,0.0414633750915527,0.0000365177574129978
337,0.0408806800842285,0.0000618621558902132
338,0.0403652191162109,0.0000529557666933366
339,0.0397524833679199,0.0000534568270005856
340,0.0392489433288574,0.0000419758913476351
341,0.0387201309204102,0.0000378462741687295
342,0.0381321907043457,0.0000404981871741303
343,0.0376038551330566,0.0000427514496436268
344,0.037053108215332,0.0000450920069707604
345,0.0364279747009277,0.0000463526433561326
346,0.0359272956848145,0.0000307763202556388
347,0.0353870391845703,0.0000388293039065095
348,0.0347857475280762,0.0000578812354810979
349,0.0342884063720703,0.0000528020454933794
350,0.0338358879089355,0.0000555233822681675
351,0.033228874206543,0.0000622085199634569
352,0.0328307151794434,0.00004522920470186
353,0.0323801040649414,0.000035103441911935
354,0.031886100769043,0.0000457713998642596
355,0.0313491821289062,0.0000679154060581353
356,0.030940055847168,0.0000664311347688544
357,0.0303926467895508,0.000063048980703688
358,0.0298871994018555,0.0000742887195364016
359,0.0294351577758789,0.0000640401357272888
360,0.0289664268493652,0.0000399399156670474
361,0.0284671783447266,0.000040671162865715
362,0.0279989242553711,0.0000530212044674593
363,0.0274524688720703,0.0000769748699795926
364,0.0270576477050781,0.0000746520514461164
365,0.0266127586364746,0.0000699180521898994
366,0.0262312889099121,0.0000692399736187164
367,0.0256776809692383,0.0000534206608016786
368,0.0253448486328125,0.0000643624191038547
369,0.0249271392822266,0.0000779800075407396
370,0.0244283676147461,0.0000704832422264979
371,0.0240178108215332,0.0000865640043430706
372,0.0236477851867676,0.0000676319172350711
373,0.0233173370361328,0.0000696867775127861
374,0.0229206085205078,0.0000563172744258602
375,0.0224928855895996,0.0000715192156190974
376,0.0221662521362305,0.0000645211951508195
377,0.0217442512512207,0.0000673489231644949
378,0.0213642120361328,0.0000691101398230428
379,0.0209865570068359,0.0000547273216937936
380,0.020695686340332,0.0000711798258631021
381,0.0203337669372559,0.0000898809584311273
382,0.0200157165527344,0.000103531878219922
383,0.0196347236633301,0.0000832732991640639
384,0.0192813873291016,0.0000893175950000964
385,0.0189728736877441,0.0000943294302685829
386,0.0186176300048828,0.0000699765637506262
387,0.0185065269470215,0.0000631552770132883
388,0.0180983543395996,0.0000778749681953186
389,0.0175609588623047,0.0000926169492035414
390,0.0174965858459473,0.0000749196005861726
391,0.0170755386352539,0.0000698546093589192
392,0.0168204307556152,0.0000538308815336167
393,0.0165066719055176,0.0000696100595989597
394,0.016289234161377,0.000075987857502899
395,0.0159616470336914,0.0000838379533921042
396,0.0157599449157715,0.000103878293638204
397,0.0153145790100098,0.0000998310720268382
398,0.0151023864746094,0.0000737511563567175
399,0.0149154663085937,0.0000782957320907403
400,0.0145001411437988,0.0000604013601612114
401,0.0143246650695801,0.0000790888728674478
402,0.0140595436096191,0.000081846705650921
403,0.0139350891113281,0.000101560717862798
404,0.0138792991638184,0.000100877828179126
405,0.0134167671203613,0.000073437566734186
406,0.0132632255554199,0.0000895844922318831
407,0.0131192207336426,0.0000774122767394282
408,0.0128574371337891,0.0000831435015770961
409,0.0127372741699219,0.0000875746200260111
410,0.0122237205505371,0.0000874577065895872
411,0.012115478515625,0.0000796089596441833
412,0.0119147300720215,0.0000770191652683829
413,0.0117225646972656,0.0000917611134904855
414,0.0116062164306641,0.0000700187916912808
415,0.0113601684570312,0.0000921123014197325
416,0.0111823081970215,0.0000785146807203399
417,0.0110578536987305,0.0000945076331243199
418,0.0107913017272949,0.0000831421342089866
419,0.0105810165405273,0.0000825162534584734
420,0.0105280876159668,0.0000787084694370708
421,0.0102858543395996,0.0000771607393139868
422,0.0101947784423828,0.0000561545351497496
423,0.00997018814086914,0.0000577612986922582
424,0.00974464416503906,0.0000696508775196465
425,0.00963449478149414,0.0000477575683883828
426,0.00958681106567383,0.0000585753255427434
427,0.00944280624389648,0.0000657049767950697
428,0.00907993316650391,0.0000643376853907882
429,0.00912809371948242,0.0000554731946389308
430,0.00892448425292969,0.000055614423552297
431,0.0087127685546875,0.0000482313183881563
432,0.00872325897216797,0.0000642899577866332
433,0.00858306884765625,0.0000670901578405821
434,0.00850057601928711,0.0000711941990121423
435,0.00831890106201172,0.0000780674323683083
436,0.00807476043701172,0.0000844836495769359
437,0.00806808471679688,0.0000588773220842076
438,0.00800418853759766,0.0000590152206943404
439,0.00785589218139648,0.00004852037752882
440,0.00769710540771484,0.0000567095518009892
441,0.00762557983398438,0.0000463072470905486
442,0.0074925422668457,0.0000464347344584651
443,0.00745725631713867,0.0000856344310449665
444,0.00726222991943359,0.0000729498517733165
445,0.00726985931396484,0.0000657361141367409
446,0.00714635848999023,0.000062122567504072
447,0.00699996948242188,0.0000560491604465349
448,0.00699949264526367,0.0000619558099683367
449,0.00686359405517578,0.0000698155389614416
450,0.00666522979736328,0.0000783189609381539
451,0.00660562515258789,0.0000722341408481564
452,0.00657987594604492,0.0000593532984802
453,0.00647640228271484,0.0000492356013544876
454,0.00642538070678711,0.0000532383935824289
455,0.00631427764892578,0.0000605085498820179
456,0.00626993179321289,0.0000870590265120435
457,0.00601100921630859,0.000063494587480225
458,0.00610113143920898,0.000062296178795052
459,0.0060114860534668,0.0000429596936692274
460,0.00594234466552734,0.0000464604346494985
461,0.00589656829833984,0.0000558947939206124
462,0.00569963455200195,0.0000654883368716159
463,0.00563716888427734,0.000061219280397035
464,0.00567245483398438,0.0000528461651270128
465,0.00552558898925781,0.0000741631256688375
466,0.00549077987670898,0.0000798841008899127
467,0.00544261932373047,0.0000764680901512101
468,0.00530624389648438,0.000072361511674247
469,0.00533485412597656,0.0000732624254479262
470,0.00520467758178711,0.0000686728287051588
471,0.00517511367797852,0.0000716684821121713
472,0.00522804260253906,0.0000672154367021224
473,0.00491666793823242,0.0000841951844186688
474,0.00497055053710938,0.0000581692474689888
475,0.00496244430541992,0.0000434170641138034
476,0.00483512878417969,0.00007134573899083
477,0.00483131408691406,0.0000563959481886769
478,0.00474834442138672,0.0000559567948021395
479,0.00467681884765625,0.0000695545087855967
480,0.00445413589477539,0.000072593661401997
481,0.00450038909912109,0.0000637768584990197
482,0.00447940826416016,0.0000597265903432371
483,0.00445222854614258,0.000070067484614265
484,0.00438356399536133,0.000064066758846544
485,0.00455951690673828,0.0000529342940760021
486,0.00391578674316406,0.0000743529659443841
487,0.00429773330688477,0.0000852258884496609
488,0.00411891937255859,0.000065762050659406
489,0.00409173965454102,0.0000759160098494356
490,0.00404024124145508,0.0000983741753419811
491,0.00396013259887695,0.0000755166150843091
492,0.00395965576171875,0.0000592152272295548
493,0.00394964218139648,0.0000485367762760088
494,0.00383758544921875,0.0000439247006019796
495,0.00385761260986328,0.0000744645004215707
496,0.00380849838256836,0.000090241983354062
497,0.00371551513671875,0.0000813954185139735
498,0.00356197357177734,0.0000903225745586515
499,0.0035395622253418,0.0000710231299627671
500,0.00353479385375977,0.0000679338169873538
501,0.00348377227783203,0.0000599299138769721
502,0.00347137451171875,0.0000712436843300462
503,0.00329685211181641,0.0000803750015035341
504,0.00345611572265625,0.0000665388623905655
505,0.0034031867980957,0.0000778209344934285
506,0.00328350067138672,0.0000659950206691013
507,0.00327014923095703,0.000072000831940372
508,0.00323200225830078,0.0000629154060289785
509,0.00321483612060547,0.0000634049994520289
510,0.00309133529663086,0.0000634713067574884
511,0.00305747985839844,0.0000755963620724582
512,0.00308704376220703,0.0000717794363696431
513,0.00291109085083008,0.0000626709890587853
514,0.0030055046081543,0.0000743575528494118
515,0.00288629531860352,0.0000719487072073993
516,0.00281953811645508,0.0000600351048661397
517,0.00291061401367187,0.0000563949402452224
518,0.00281953811645508,0.0000690788775714191
519,0.00277948379516602,0.0000953721998930037
520,0.00262975692749023,0.0000807419223347348
521,0.00276803970336914,0.0000633619522055717
522,0.00259923934936523,0.0000701728700358912
523,0.0026545524597168,0.0000656997858034128
524,0.00260734558105469,0.000046057384913254
525,0.00257158279418945,0.0000502820204853685
526,0.00256061553955078,0.0000739328286869595
527,0.00238609313964844,0.000080569959872798
528,0.00244379043579102,0.0000700626168448192
529,0.00239038467407227,0.0000689784135242691
530,0.00234413146972656,0.000072862527734934
531,0.00240612030029297,0.0000648042574638156
532,0.00242424011230469,0.0000625820386333784
533,0.00231599807739258,0.0000626165446135691
534,0.00220012664794922,0.0000829847365974561
535,0.00224399566650391,0.0000780950964940425
536,0.00220823287963867,0.0000654049564619454
537,0.00208520889282227,0.0000590537360978166
538,0.00215530395507812,0.0000640791791834862
539,0.00206851959228516,0.0000583818900150704
540,0.00207710266113281,0.0000409636146448412
541,0.00201559066772461,0.0000723960675219445
542,0.00207424163818359,0.0000773344023393427
543,0.00200986862182617,0.0000462876024838355
544,0.00197696685791016,0.0000422054761475468
545,0.00184249877929687,0.0000373724449939914
546,0.00183010101318359,0.0000515513677663406
547,0.00183010101318359,0.0000494429779799711
548,0.00187253952026367,0.0000477611390032129
549,0.00176429748535156,0.0000390730155447923
550,0.00176906585693359,0.0000536500079910141
551,0.00174236297607422,0.0000763431033076097
552,0.00177574157714844,0.0000683509100841539
553,0.00160551071166992,0.0000628177533609512
554,0.00165843963623047,0.0000745712946133774
555,0.00166797637939453,0.0000639815258702069
556,0.00162887573242187,0.0000798043648503322
557,0.00159502029418945,0.0000580596970822587
558,0.00158071517944336,0.000048318452991079
559,0.00152683258056641,0.0000507322019941937
560,0.00149250030517578,0.0000409455711387773
561,0.00146341323852539,0.0000611988495145204
562,0.0015110969543457,0.0000487995716144588
563,0.00147676467895508,0.0000568836951615543
564,0.00144338607788086,0.0000759953377271139
565,0.00143527984619141,0.0000513879155696911
566,0.00138998031616211,0.0000496357478060434
567,0.00139665603637695,0.0000590094412155833
568,0.00129461288452148,0.0000617444282195298
569,0.00129461288452148,0.0000728859283610744
570,0.00127363204956055,0.0000595063352468893
571,0.00127601623535156,0.0000485543402162273
572,0.00124740600585937,0.0000502084847375333
573,0.00130510330200195,0.000047330741989794
574,0.00124168395996094,0.0000509613787187179
575,0.00113201141357422,0.0000521946136332389
576,0.00127696990966797,0.0000519654063430812
577,0.00116539001464844,0.0000445287787470385
578,0.00113868713378906,0.0000386664661286362
579,0.00119352340698242,0.0000369664143434797
580,0.00115203857421875,0.0000492032642136862
581,0.00111865997314453,0.0000544983360798953
582,0.00107145309448242,0.0000571558508110118
583,0.00107431411743164,0.0000553634430993277
584,0.00109338760375977,0.0000505807136771245
585,0.00106477737426758,0.0000475057619201271
586,0.000983715057373047,0.0000437509461236994
587,0.00103521347045898,0.0000584276335572877
588,0.000964164733886719,0.0000624529265011112
589,0.000974178314208984,0.0000641022391388171
590,0.000979423522949219,0.0000608028147035089
591,0.000907421112060547,0.0000615858772777376
592,0.000944137573242188,0.0000676033348024265
593,0.000840663909912109,0.0000632362303590285
594,0.000950336456298828,0.0000580508849522912
595,0.000884056091308594,0.000052932146335183
596,0.000855445861816406,0.0000623034781305736
597,0.000841617584228516,0.0000522794918267706
598,0.000788211822509766,0.0000679321434727025
599,0.000741004943847656,0.0000523305699093588
600,0.000767707824707031,0.000040387853961677
601,0.000739097595214844,0.0000366451760422532
602,0.000781536102294922,0.0000422027824102357
603,0.000727176666259766,0.000039785196261902
604,0.000703334808349609,0.0000474470943321447
605,0.000676631927490234,0.000052540877358075
606,0.000618457794189453,0.0000338604748700088
607,0.000652790069580078,0.0000484406475036632
608,0.000652790069580078,0.000067677288052407
609,0.000714302062988281,0.0000620639785679568
610,0.000639915466308594,0.0000567285934550275
611,0.000597953796386719,0.0000622231383445689
612,0.000559329986572266,0.000054044816909152
613,0.000585556030273438,0.000055031842328475
614,0.000511646270751953,0.0000729950320935384
615,0.00049591064453125,0.0000651437048261187
616,0.000410079956054688,0.0000551360684187403
617,0.000485897064208984,0.0000541918664748206
618,0.000478744506835938,0.0000507613256028685
619,0.000520706176757813,0.0000655126361678909
620,0.000492572784423828,0.0000655872134315105
621,0.000370025634765625,0.0000559943684447325
622,0.000451087951660156,0.0000682693606183284
623,0.000436782836914063,0.0000584373616060984
624,0.000437736511230469,0.0000619374575848752
625,0.000382900238037109,0.0000422310580823859
626,0.000413417816162109,0.0000557236807711991
627,0.000413894653320313,0.0000599536216441037
628,0.000403881072998047,0.0000613750737764773
629,0.000296115875244141,0.0000664431131299986
630,0.000360965728759766,0.0000553962887802024
631,0.000344276428222656,0.0000538952567837587
632,0.000295162200927734,0.0000515866406871739
633,0.000303268432617187,0.0000496712366690675
634,0.000253200531005859,0.0000513912339520162
635,0.000235080718994141,0.0000625602355766373
636,0.000295639038085937,0.0000555653411655471
637,0.000222206115722656,0.0000555632951251832
638,0.000154018402099609,0.0000807010792103829
639,0.000154018402099609,0.0000635894129874025
640,0.000236034393310547,0.0000644083279433783
641,0.000343799591064453,0.0000483643121125717
642,0.000265598297119141,0.0000474111395711155
643,0.000171184539794922,0.0000602100147921165
644,0.000206947326660156,0.0000671121832222361
645,0.000163078308105469,0.0000688513889425329
646,0.000163555145263672,0.000050533491358731
647,0.000157833099365234,0.0000509200913973738
648,0.000160694122314453,0.0000658950307681801
649,0.000121116638183594,0.0000542945642041771
650,0.000113487243652344,0.0000686446796910404
651,0.000127792358398437,0.000075492523967507
652,0.000102519989013672,0.0000573464833688448
653,0.000095367431640625,0.0000559659366585448
654,0.0000591278076171875,0.0000568617064886621
655,0.000363349914550781,0.0000597884206053377
656,0.000392436981201172,0.0000508027419531282
657,-0.000646591186523438,0.0000546826408081572
658,0.000249862670898437,0.0000410772448621402
659,0.0000276565551757812,0.0000503306081635524
660,0.0000386238098144531,0.0000518559039322369
661,0.0000395774841308594,0.0000610332935764282
662,-0.00000858306884765625,0.0000688315717909349
663,0.0000371932983398437,0.00006052076121229
664,0.0000371932983398437,0.0000541614389924313
665,-0.000000476837158203125,0.0000677226284735422
666,-0.000116825103759766,0.0000745514729736064
667,-0.0000486373901367188,0.0000739189880516252
668,-0.0000400543212890625,0.0000589718607973687
669,-0.0000553131103515625,0.0000583994130519371
670,-0.0000405311584472656,0.0000588792529630171
671,-0.0000872611999511719,0.0000546504063460152
672,-0.0000143051147460937,0.0000468503124417676
673,-0.000154495239257812,0.0000570921651745356
674,-0.0000934600830078125,0.0000553110549807965
675,-0.000102996826171875,0.0000510204618100605
676,-0.000100612640380859,0.0000396678650913417
677,-0.0000815391540527344,0.0000334313520761755
678,-0.000100135803222656,0.0000307707788000967
679,-0.000161170959472656,0.0000411180472198889
680,-0.000102043151855469,0.0000373800492110099
681,-0.000118732452392578,0.0000439880663137391
682,-0.000121593475341797,0.0000505750942846243
683,-0.000149726867675781,0.0000348107455144917
684,-0.000169754028320312,0.0000514376688264075
685,-0.000186443328857422,0.0000657291960022094
686,-0.000182151794433594,0.0000534376832384372
687,-0.000173091888427734,0.0000460191092164795
688,-0.000294685363769531,0.0000408635812485286
689,-0.000209331512451172,0.0000415094894272239
690,-0.000169754028320312,0.0000580587180227562
691,-0.000176429748535156,0.0000426676010089049
692,-0.00017547607421875,0.0000361571817261761
693,-0.000271797180175781,0.0000433764586416727
694,-0.000228404998779297,0.0000475571860987783
695,-0.00025177001953125,0.0000487867567536494
696,-0.000272750854492187,0.0000639761950388863
697,-0.000232219696044922,0.0000690360747071094
698,-0.000276565551757812,0.0000521750067488649
699,-0.000229358673095703,0.0000651227594191705
700,-0.000226020812988281,0.000052502997573815
701,-0.000302314758300781,0.0000543698919847875
702,-0.000288963317871094,0.0000611300773425776
703,-0.000314712524414062,0.0000521510327684335
704,-0.0002593994140625,0.0000467227424059255
705,-0.000363826751708984,0.0000704751769517605
706,-0.000281333923339844,0.0000622267924032586
707,-0.000208377838134766,0.0000519391468191019
708,-0.000362873077392578,0.0000628792560570047
709,-0.000308513641357422,0.0000705106572600321
710,-0.000282764434814453,0.0000573464833688448
711,-0.000343799591064453,0.0000357166628630707
712,-0.000359058380126953,0.0000396356098358049
713,-0.000393390655517578,0.0000613046448599222
714,-0.000335216522216797,0.0000654709747098347
715,-0.000406265258789063,0.0000557236807711991
716,-0.000377178192138672,0.0000462446008132984
717,-0.000384330749511719,0.0000478633833627365
718,-0.000406742095947266,0.0000620035007430562
719,-0.000452041625976563,0.0000749514602871481
720,-0.0003814697265625,0.000062882871989384
721,-0.000431060791015625,0.0000515557782012005
722,-0.000448703765869141,0.0000532245114805879
723,-0.000454425811767578,0.0000502865422498098
724,-0.000452041625976563,0.0000571598288073147
725,-0.000436782836914063,0.0000565559827011932
726,-0.000501155853271484,0.0000577603145747887
727,-0.000532627105712891,0.0000500099664370796
728,-0.000486850738525391,0.0000544972930395584
729,-0.000500679016113281,0.0000547262830177444
730,-0.000475883483886719,0.0000544242305411752
731,-0.000523090362548828,0.0000415840551794151
732,-0.000582695007324219,0.0000515998618160964
733,-0.000605106353759766,0.0000625293348990841
734,-0.000577926635742188,0.0000607700850464188
735,-0.000620841979980469,0.0000538636064393728
736,-0.000664234161376953,0.0000461227504323721
737,-0.000632762908935547,0.0000384719240524531
738,-0.000681400299072266,0.0000434602476052188
739,-0.000582695007324219,0.0000507366836374881
740,-0.000613212585449219,0.0000604389922387298
741,-0.000688552856445313,0.0000518712481858446
742,-0.000630378723144531,0.0000519971189076421
743,-0.000621318817138672,0.0000630291429209072
744,-0.000647544860839844,0.0000660965793363489
745,-0.000672340393066406,0.0000636037139912913
746,-0.000599384307861328,0.0000599375013827159
747,-0.0005340576171875,0.0000601542879422682
748,-0.000678062438964844,0.0000529622067809248
749,-0.00066375732421875,0.000050896643153795
750,-0.000652790069580078,0.0000614657708905106
751,-0.000641345977783203,0.0000792654828631154
752,-0.000640869140625,0.0000758830569402673
753,-0.000579357147216797,0.0000705557882115573
754,-0.000634193420410156,0.0000418382150718661
755,-0.000595569610595703,0.0000441055039678108
756,-0.000562191009521484,0.000045270659633007
757,-0.000555992126464844,0.0000485812592580796
758,-0.000640392303466797,0.0000515337222522976
759,-0.000698566436767578,0.000055881571725725
760,-0.000623226165771484,0.0000623800695858499
761,-0.000624179840087891,0.000053905802768946
762,-0.000583648681640625,0.0000675797872514612
763,-0.000637531280517578,0.0000777566293232351
764,-0.0005645751953125,0.0000831763116681139
765,-0.000622272491455078,0.00006262380660775
766,-0.000638484954833984,0.000052017885622276
767,-0.000626087188720703,0.0000408204358193997
768,-0.000564098358154297,0.0000710775329810565
769,-0.000597476959228516,0.0000513558268193958
770,-0.000622272491455078,0.0000396327414315577
771,-0.000636577606201172,0.0000600322642899235
772,-0.000588417053222656,0.000055663462659674
773,-0.000613212585449219,0.0000591412651990405
774,-0.000597953796386719,0.0000537949668110664
775,-0.000663280487060547,0.0000546514464641358
776,-0.000605106353759766,0.0000587545813313045
777,-0.000635147094726563,0.0000565047002520486
778,-0.000682353973388672,0.0000551494693498169
779,-0.000619888305664063,0.0000489844301482872
780,-0.000637531280517578,0.0000471948357836099
781,-0.000673294067382813,0.0000694416367088224
782,-0.00061798095703125,0.0000514509282360176
783,-0.00064849853515625,0.0000476073607419917
784,-0.000614166259765625,0.0000621426946931645
785,-0.000651836395263672,0.0000554762686557222
786,-0.000644683837890625,0.00005631222748719
787,-0.000600814819335938,0.0000557124586019641
788,-0.000602245330810547,0.0000584859775789717
789,-0.000685214996337891,0.0000497295664666234
790,-0.000590801239013672,0.0000542851408820315
791,-0.000606060028076172,0.0000527331020391436
792,-0.000645160675048828,0.0000743590817548772
793,-0.000640392303466797,0.0000621591575458262
794,-0.000521659851074219,0.0000555264535065065
795,-0.00055694580078125,0.0000590152206943404
796,-0.000705718994140625,0.0000548839361951376
797,-0.000608444213867188,0.0000468260401821124
798,-0.000651359558105469,0.0000558306879471431
799,-0.000661373138427734,0.0000592536126270514
800,-0.000662326812744141,0.0000624784063497894
801,-0.000651836395263672,0.0000677410917965994
802,-0.000674724578857422,0.0000577888471772233
803,-0.000641822814941406,0.0000670766001648166
804,-0.000712871551513672,0.0000687125488581141
805,-0.000711917877197266,0.0000592142672758017
806,-0.000700473785400391,0.0000446778859920222
807,-0.000626564025878906,0.0000424177408309443
808,-0.000667572021484375,0.0000510082049095722
809,-0.000620841979980469,0.0000555121196071824
810,-0.000711917877197266,0.0000727016400045651
811,-0.000648021697998047,0.0000867031052356496
812,-0.000761032104492188,0.0000694252632119291
813,-0.000691890716552734,0.0000550194459079103
814,-0.000739574432373047,0.0000551886226445254
815,-0.000727653503417969,0.0000580371745350861
816,-0.000712394714355469,0.0000638142815299858
817,-0.000750064849853516,0.0000555551102101907
818,-0.000707626342773438,0.0000530715687025835
819,-0.000732898712158203,0.000053878378913844
820,-0.000769615173339844,0.0000525765675867215
821,-0.00075531005859375,0.0000581751104178994
822,-0.000673294067382813,0.0000710503366789394
823,-0.000791549682617188,0.0000650284216008141
824,-0.000714778900146484,0.0000517154025160882
825,-0.000766754150390625,0.000050963609512946
826,-0.000844001770019531,0.0000453471886748075
827,-0.000814914703369141,0.0000538899830172425
828,-0.000800609588623047,0.0000698529818619918
829,-0.000936985015869141,0.00009589763123757
830,-0.000904083251953125,0.0000808685455112075
831,-0.000902652740478516,0.0000660638910459628
832,-0.000953197479248047,0.0000539300507085994
833,-0.000889301300048828,0.0000490574832999909
834,-0.000829219818115234,0.0000519730628716992
835,-0.000915050506591797,0.0000433095732554472
836,-0.000943183898925781,0.0000556450780589437
837,-0.000965118408203125,0.0000688827544393324
838,-0.00086212158203125,0.0000777039764194538
839,-0.000879764556884766,0.0000732950054894414
840,-0.000960826873779297,0.000079454578840249
841,-0.000904083251953125,0.000057402955538224
842,-0.000922203063964844,0.0000603147172774108
843,-0.000894069671630859,0.0000620273323799672
844,-0.000909805297851563,0.0000449998883720552
845,-0.000885963439941406,0.0000498140804085523
846,-0.000977993011474609,0.0000700707296060285
847,-0.000883102416992188,0.0000643518201051655
848,-0.000910282135009766,0.0000725043403959206
849,-0.000928401947021484,0.0000559720303999647
850,-0.000916004180908203,0.0000510538747642477
851,-0.000854015350341797,0.0000441531640230943
852,-0.000844478607177734,0.0000631102580626882
853,-0.00089263916015625,0.0000847671097263379
854,-0.000907421112060547,0.0000605855339954829
855,-0.000838756561279297,0.0000551680191111244
856,-0.000879764556884766,0.0000663746362354481
857,-0.000820159912109375,0.0000664003233464997
858,-0.000745296478271484,0.0000561697171120728
859,-0.000867366790771484,0.0000851418082993374
860,-0.000735759735107422,0.0000550772719996723
861,-0.000842094421386719,0.0000715938877664622
862,-0.000871658325195313,0.000074127859907302
863,-0.0008087158203125,0.000076508221130873
864,-0.000912666320800781,0.0000757511019534425
865,-0.000825881958007813,0.0000751362827639218
866,-0.000788688659667969,0.0000637162222282435
867,-0.000769138336181641,0.0000621262274780053
868,-0.000861644744873047,0.000073442210811388
869,-0.000746726989746094,0.0000735705806958606
870,-0.000852584838867188,0.0000654675017249393
871,-0.000795364379882813,0.0000537696007991357
872,-0.000780582427978516,0.0000682760213686851
873,-0.000811576843261719,0.0000633834794832728
874,-0.000828266143798828,0.000054283046588291
875,-0.000875949859619141,0.0000650354142801828
876,-0.000802040100097656,0.0000530887030728439
877,-0.000800609588623047,0.0000728219488366145
878,-0.000741004943847656,0.0000863404500977486
879,-0.000861167907714844,0.0000832186722235459
880,-0.000815391540527344,0.0000685535301624662
881,-0.000714302062988281,0.0000772947003095708
882,-0.00074005126953125,0.0000560957929019335
883,-0.000886440277099609,0.0000591931443545636
884,-0.000768661499023438,0.0000605517481445403
885,-0.000866889953613281,0.0000823576597053793
886,-0.00080108642578125,0.0000584577852392139
887,-0.000734329223632813,0.0000659622820502876
888,-0.00080108642578125,0.0000632470163096472
889,-0.000807762145996094,0.0000572849942902541
890,-0.000805377960205078,0.0000850670006210182
891,-0.000720977783203125,0.000070192308504418
892,-0.000774383544921875,0.0000776190716140004
893,-0.000800132751464844,0.0000576539310134583
894,-0.000869274139404297,0.0000706169912260567
895,-0.000725269317626953,0.000060550809379579
896,-0.000774383544921875,0.0000709125955391743
897,-0.000789165496826172,0.0000613102079789941
898,-0.000766754150390625,0.0000775545990673656
899,-0.000732898712158203,0.0000605104287086126
900,-0.000858783721923828,0.0000806630342628117
901,-0.000836372375488281,0.0000818300356947447
902,-0.000873088836669922,0.000070902975706594
903,-0.000750064849853516,0.0000654779201269984
904,-0.000873565673828125,0.0000644471483412689
905,-0.000888347625732422,0.0000668439982057847
906,-0.000733375549316406,0.0000744263225018408
907,-0.000925540924072266,0.0000740879740502807
908,-0.000921726226806641,0.0000583351361832741
909,-0.000763416290283203,0.0000626110975651822
910,-0.000874519348144531,0.0000728703287785999
911,-0.000800609588623047,0.0000674888840215841
912,-0.000859260559082031,0.0000687886150438363
913,-0.000913143157958984,0.0000762149282394745
914,-0.000977993011474609,0.0000692629567530636
915,-0.000923633575439453,0.0000653266906738281
916,-0.000860214233398438,0.0000924965764749049
917,-0.00101804733276367,0.0000773873066949567
918,-0.000982761383056641,0.0000682510402031024
919,-0.00105810165405273,0.0000742688224800782
920,-0.00105762481689453,0.0000741631256688375
921,-0.000984668731689453,0.0000550029130011304
922,-0.00105619430541992,0.000062552966202272
923,-0.00116395950317383,0.0000738651387051822
924,-0.00115728378295898,0.0000816004784627826
925,-0.00109243392944336,0.0000699391870113619
926,-0.00121068954467773,0.0000692498244674541
927,-0.00134849548339844,0.0000621664729698301
928,-0.00129175186157227,0.0000727797852643544
929,-0.00136137008666992,0.0000809654891710278
930,-0.00130701065063477,0.0000787084694370708
931,-0.00145626068115234,0.0000881723352914903
932,-0.0013880729675293,0.0000801753152688258
933,-0.00155830383300781,0.0000829024974751821
934,-0.00161361694335937,0.0000802036698160656
935,-0.00169754028320312,0.0000706363074765824
936,-0.00153207778930664,0.0000953578944205761
937,-0.00170803070068359,0.000085008176976905
938,-0.00171613693237305,0.0000949253325399247
939,-0.00171613693237305,0.000110778210903689
940,-0.00174188613891602,0.0000737141512583735
941,-0.00195646286010742,0.0000963329081339294
942,-0.00181865692138672,0.0000818397602484959
943,-0.00197601318359375,0.0000812584243932373
944,-0.00212907791137695,0.00010208547908623
945,-0.00207233428955078,0.0000995071294842831
946,-0.00217151641845703,0.000106173123158003
947,-0.00226879119873047,0.000123944644933319
948,-0.00233554840087891,0.0000946398638157294
949,-0.00240993499755859,0.000128317933590349
950,-0.00240564346313477,0.000122059136117467
951,-0.00257349014282227,0.000100609250486135
952,-0.00258445739746094,0.0000812822052318587
953,-0.00282430648803711,0.000101075981246859
954,-0.00275897979736328,0.000114514406768376
955,-0.00303125381469727,0.000149763309393263
956,-0.00312995910644531,0.000142436295628778
957,-0.00331735610961914,0.000113451174606041
958,-0.00343179702758789,0.000124442622469505
959,-0.0034027099609375,0.000123219740915964
960,-0.00352907180786133,0.000142187051891902
961,-0.00353336334228516,0.000165131675182431
962,-0.00371980667114258,0.00017823251932104
963,-0.00369119644165039,0.000111903430695223
964,-0.00355005264282227,0.000101585341627946
965,-0.00348520278930664,0.0001068306803554
966,-0.00345039367675781,0.000140199855544564
967,-0.0032801628112793,0.000161770827248964
968,-0.00340175628662109,0.000146679946363299
969,-0.00339126586914062,0.000174587529437867
970,-0.00324153900146484,0.000178965821925963
971,-0.0033574104309082,0.000151550221721619
972,-0.00308847427368164,0.000185949373680051
973,-0.0029444694519043,0.000122252715447284
974,-0.00275802612304687,0.000142860285271256
975,-0.0028538703918457,0.000187085526171934
976,-0.00290012359619141,0.000194226726379604
977,-0.00272035598754883,0.000137966715599834
978,-0.00249910354614258,0.000141298364085786
979,-0.00233030319213867,0.000193104331315199
980,-0.00239086151123047,0.000168714124131287
981,-0.00220012664794922,0.000193649904579118
982,-0.00247001647949219,0.000155229354919654
983,-0.00244426727294922,0.000213618789357947
984,-0.0022130012512207,0.000146263920278047
985,-0.00218629837036133,0.000166174842064705
986,-0.00189590454101562,0.000190844504314897
987,-0.00206089019775391,0.000224403437245875
988,-0.00207042694091797,0.000214451647440279
989,-0.0019068717956543,0.000273629753186225
990,-0.00143623352050781,0.000224484481503365
991,-0.00136947631835937,0.000161055235539128
992,-0.00144481658935547,0.000182682781309175
993,-0.00151872634887695,0.000156669853550221
994,-0.00149345397949219,0.000134528937669854
995,-0.000733852386474609,0.00013783151065933
996,-0.00125026702880859,0.000201778194608751
997,-0.00126171112060547,0.000191543771158239
998,-0.00114631652832031,0.000236295786528756
999,-0.0011448860168457,0.000251271013443805
1000,-0.000784397125244141,0.000227750525425329
1001,-0.000874042510986328,0.000168961916401154
1002,-0.000813484191894531,0.000186691338742166
1003,-0.000902652740478516,0.000221334639440592
1004,-0.000988483428955078,0.000264062757305014
1005,-0.000739097595214844,0.000210050962798099
1006,-0.000423431396484375,0.000183849017121901
1007,-0.000546455383300781,0.000240250227374122
1008,-0.000991344451904297,0.000153621510608391
1009,-0.000652313232421875,0.000224289926087785
1010,-0.000386714935302734,0.000246808259881925
1011,-0.000695705413818359,0.000276012525439168
1012,-0.000176429748535156,0.000279392396574722
1013,-0.000456809997558594,0.000361491630263737
1014,-0.00038909912109375,0.000295195708583759
1015,-0.000381946563720703,0.000261883898839339
1016,-0.000579833984375,0.00027765519786433
1017,0.000011444091796875,0.000228551785601483
1018,-0.000182151794433594,0.000304118949118092
1019,-0.000159263610839844,0.000338875255845948
1020,-0.0000476837158203125,0.000368587412389562
1021,-0.000282764434814453,0.000300793173014899
1022,-0.000537395477294922,0.000244646739880737
1023,-0.000135421752929687,0.000257463806862281
1024,-0.000134944915771484,0.000319707135616409
1025,-0.0005645751953125,0.000431701723797455
1026,-0.000627994537353516,0.000304788104818884
1027,-0.0000181198120117187,0.000191020751320714
1028,-0.0000805854797363281,0.000300284769364973
1029,-0.0000271797180175781,0.000359746380222902
1030,-0.000000476837158203125,0.00025796493625941
1031,-0.000221729278564453,0.000247367749586082
1032,-0.000496387481689453,0.000257407280420662
1033,-0.000280857086181641,0.00031324681065396
1034,-0.000261783599853516,0.000284130934092316
1035,-0.000237464904785156,0.000277825478223407
1036,-0.000263214111328125,0.000320144931136188
1037,-0.00026702880859375,0.000362205455151274
1038,-0.000865936279296875,0.000405938281079804
1039,-0.0001373291015625,0.000375636321475785
1040,-0.00061798095703125,0.000311435632155141
1041,0.0000257492065429687,0.000428071247005927
1042,-0.000131130218505859,0.000463285520668191
1043,-0.00166034698486328,0.000408902807490894
1044,-0.000982284545898438,0.000343333350124024
1045,-0.00102376937866211,0.000377866897492669
1046,-0.000481128692626953,0.000537980521930849
1047,-0.000361919403076172,0.000429962243762371
1048,0.000341892242431641,0.00051660635428559
1049,-0.000128746032714844,0.000613656632229847
1050,-0.000517368316650391,0.000598871023441884
1051,-0.00144243240356445,0.000492362017005133
1052,-0.000161170959472656,0.000418792261497143
1053,-0.00137424468994141,0.000507082184744487
1054,-0.00110483169555664,0.000426197468127263
1055,-0.000236988067626953,0.000603663036096101
1056,-0.00120925903320312,0.000448628509485902
1057,-0.000645637512207031,0.000614225491339002
1058,-0.000758171081542969,0.000509644125749645
1059,-0.000791549682617188,0.00051530898409327
1060,-0.000966072082519531,0.000613063509367716
1061,-0.00173616409301758,0.000601489581296016
1062,-0.00104856491088867,0.000802610854230955
1063,-0.00121402740478516,0.000822454392337596
1064,-0.000983238220214844,0.000726477020629289
1065,-0.000490665435791016,0.000875188328281586
1066,0.0000939369201660156,0.000872273718296264
1067,0.0000290870666503906,0.000610518432694205
1068,-0.00139236450195312,0.000975369678619195
1069,-0.000629425048828125,0.00111423121461542
1070,-0.000475883483886719,0.00103166228960971
1071,-0.000942707061767578,0.000789983187469038
1072,-0.00221681594848633,0.00117512490719544
1073,-0.00135517120361328,0.000920488900577779
1074,-0.00157403945922852,0.000946475515509125
1075,0.00112485885620117,0.000778516068724005
1076,-0.000413417816162109,0.00120766350936337
1077,-0.00102138519287109,0.00118476906734109
1078,0.000953197479248047,0.00074270108297112
1079,0.00105428695678711,0.00126737539936166
1080,-0.00266218185424805,0.00117331555357645
1081,-0.00194644927978516,0.0014960229149725
1082,-0.00174665451049805,0.00134225315071101
1083,0.000451087951660156,0.00125238318056987
1084,-0.00113773345947266,0.00182994172922303
1085,-0.000749111175537109,0.00150714822080881
1086,-0.000408172607421875,0.00141631649372586
1087,-0.000000476837158203125,0.00183356431003662
1088,-0.000268459320068359,0.00176778191503427
1089,-0.000229835510253906,0.00181014520084465
1090,-0.0019230842590332,0.0018094697915087
1091,0.000576496124267578,0.0015100805686936
1092,-0.000975131988525391,0.00163639397232548
1093,0.0000677108764648438,0.00147284863679983
1094,0.00148391723632812,0.0012793973708538
1095,-0.00147294998168945,0.000892361980995768
1096,-0.00123786926269531,0.00153663657792457
1097,-0.00189018249511719,0.00237263130348212
1098,-0.00320243835449219,0.00241604988918817
1099,0.00175189971923828,0.00221262964458807
1100,-0.000588893890380859,0.00251561859082655
