Wavelength (nm),Absorbance (AU),Std.Dev.
190,0.217194557189941,0.0000877535847695773
191,0.215785503387451,0.0000789075454461579
192,0.214486122131348,0.0000500076931017857
193,0.213349342346191,0.0000416789500873798
194,0.212435722351074,0.0000442264857636282
195,0.211709022521973,0.0000536828431568713
196,0.211236953735352,0.0000494061746416459
197,0.210827350616455,0.0000462421423671728
198,0.210399150848389,0.0000385236028898905
199,0.209976673126221,0.0000383483518465652
200,0.209475994110107,0.0000425341685246454
201,0.208870410919189,0.0000474590731993436
202,0.208186149597168,0.0000404047396932885
203,0.207376956939697,0.0000324319383108748
204,0.206455230712891,0.0000322544299591623
205,0.205282688140869,0.0000526349175779545
206,0.203899383544922,0.0000475284910924859
207,0.20226526260376,0.0000491454663971737
208,0.200441837310791,0.0000437106508158993
209,0.198417663574219,0.0000463783890372766
210,0.196294784545898,0.0000584110921560573
211,0.194000720977783,0.0000566634244547034
212,0.191818714141846,0.0000509992889498975
213,0.189417839050293,0.0000481475680380793
214,0.18705415725708,0.0000489832696960371
215,0.184662342071533,0.000040958063643441
216,0.182300090789795,0.0000359727734594692
217,0.179933071136475,0.0000318295500181228
218,0.17770528793335,0.0000353937178727311
219,0.175439357757568,0.0000330345267150869
220,0.173252105712891,0.0000307938616194202
221,0.171049118041992,0.0000291368574263967
222,0.168920516967773,0.0000325727249863591
223,0.166807651519775,0.0000397966246847623
224,0.164769649505615,0.0000548248693798882
225,0.162691116333008,0.0000385811063383247
226,0.16060733795166,0.0000322685256355521
227,0.158596038818359,0.0000264440492138715
228,0.156540393829346,0.0000274776765942589
229,0.15449047088623,0.0000307744732146616
230,0.152440547943115,0.0000322191637885914
231,0.150474548339844,0.0000338235221109899
232,0.148478507995605,0.0000481853326935548
233,0.146420478820801,0.0000453872834560043
234,0.144495964050293,0.0000350937246959947
235,0.142568588256836,0.0000463661309720334
236,0.140625476837158,0.0000429464598282168
237,0.138829231262207,0.0000341904213029398
238,0.137031555175781,0.0000391696402647774
239,0.135276794433594,0.0000294796643341383
240,0.133558750152588,0.0000244108492256589
241,0.13190746307373,0.0000358247220650673
242,0.130326747894287,0.0000367032993555387
243,0.128864765167236,0.0000368223582906752
244,0.127455234527588,0.0000327302776011874
245,0.126163959503174,0.0000367218793859322
246,0.124851703643799,0.0000382503955281294
247,0.123651504516602,0.0000408106869903176
248,0.12260103225708,0.0000543782552969405
249,0.121634006500244,0.0000422815033220487
250,0.120670795440674,0.000039757325718193
251,0.119803428649902,0.0000415813211849888
252,0.118935108184814,0.0000429391794771299
253,0.118134498596191,0.0000574564042884715
254,0.117321014404297,0.0000490957058547253
255,0.11652135848999,0.0000447719367763729
256,0.115800857543945,0.0000338445229463224
257,0.115015029907227,0.0000464885661758665
258,0.114299774169922,0.0000481664540669647
259,0.113465309143066,0.0000460042842681593
260,0.112575054168701,0.000049920090974054
261,0.111790657043457,0.0000434968545226334
262,0.110970973968506,0.0000323010983279227
263,0.110108375549316,0.0000451763888638573
264,0.109201908111572,0.0000476646385177605
265,0.108110427856445,0.0000491188565637285
266,0.10705041885376,0.0000502198049380554
267,0.106124401092529,0.0000461843312101947
268,0.105125427246094,0.000045664471720254
269,0.104060173034668,0.0000477647093511244
270,0.102988243103027,0.0000711494730132847
271,0.101831912994385,0.0000642475034845436
272,0.100629329681396,0.0000624420033831438
273,0.0995655059814453,0.0000553326325659718
274,0.0984568595886231,0.000046446974418205
275,0.0972938537597656,0.0000380260816937695
276,0.0961451530456543,0.0000412698359498362
277,0.0950140953063965,0.0000559639052639538
278,0.0938100814819336,0.000042982843086678
279,0.0927343368530273,0.0000544346740449155
280,0.091644287109375,0.0000480459284428703
281,0.0905590057373047,0.0000494004216432634
282,0.0894951820373535,0.0000458074007538942
283,0.08831787109375,0.0000514365637213203
284,0.08721923828125,0.0000515866406871739
285,0.0861330032348633,0.0000361107744124511
286,0.085024356842041,0.0000439660926371748
287,0.0839333534240723,0.0000503102748455428
288,0.0829582214355469,0.000035547562522285
289,0.0818676948547363,0.0000355715406447568
290,0.080693244934082,0.0000384038975334864
291,0.0796041488647461,0.0000494705625158359
292,0.0786347389221191,0.0000368871375586553
293,0.0775761604309082,0.0000517505636317916
294,0.0765700340270996,0.0000451033510306119
295,0.0756378173828125,0.0000391812482339938
296,0.0746340751647949,0.0000427527792484802
297,0.0736184120178223,0.0000413248936215842
298,0.0726847648620606,0.000042535504921426
299,0.0717816352844238,0.0000295504416301979
300,0.0708856582641602,0.0000344314731569971
301,0.0699572563171387,0.0000479891057608576
302,0.0690011978149414,0.0000527201651042376
303,0.0680828094482422,0.0000456158984436209
304,0.0671796798706055,0.0000374560064729758
305,0.0663971900939941,0.000046764088897497
306,0.0655784606933594,0.000042794640655782
307,0.0647282600402832,0.0000473487533085114
308,0.0638971328735352,0.0000651576646901654
309,0.0630373954772949,0.0000540164113036517
310,0.062251091003418,0.0000462335367762604
311,0.0614252090454102,0.0000470778599915385
312,0.0606393814086914,0.0000372307234541689
313,0.0598258972167969,0.0000508094549368762
314,0.0591340065002441,0.0000531849810505892
315,0.0583276748657227,0.0000778340812787655
316,0.0576510429382324,0.0000562617332001331
317,0.0568828582763672,0.0000546826408081572
318,0.0561633110046387,0.0000412202211683588
319,0.055539608001709,0.0000492690710185604
320,0.0549082756042481,0.0000438028852956939
321,0.0540847778320313,0.0000439492818245106
322,0.0534629821777344,0.0000519697816404152
323,0.052793025970459,0.0000368385637869194
324,0.052159309387207,0.0000483137470302213
325,0.0515127182006836,0.0000575473507889866
326,0.0508646965026856,0.000067277988651924
327,0.0501594543457031,0.0000523685744159467
328,0.0495367050170898,0.0000662340372769297
329,0.0488834381103516,0.0000434118268322266
330,0.0482511520385742,0.0000498847791504428
331,0.0476570129394531,0.0000451839377633776
332,0.047050952911377,0.0000404708076402649
333,0.046379566192627,0.0000469254766606582
334,0.0457048416137695,0.0000519686878506155
335,0.0449905395507813,0.0000447274779457469
336,0.0444178581237793,0.0000438482816031366
337,0.0438222885131836,0.0000579155977275428
338,0.0432162284851074,0.0000567145633824125
339,0.0427021980285645,0.0000461757148452399
340,0.0421195030212402,0.0000332993178866742
341,0.0414619445800781,0.0000331530443110823
342,0.0409393310546875,0.0000490285069809988
343,0.0403594970703125,0.0000442701637164687
344,0.0398049354553223,0.0000433253202829662
345,0.0392694473266602,0.0000449354194903488
346,0.0386791229248047,0.0000325831940432996
347,0.0380997657775879,0.0000406851368097335
348,0.0375046730041504,0.0000540637456880556
349,0.0370073318481445,0.0000448150831215348
350,0.0365180969238281,0.0000427008939812522
351,0.0359821319580078,0.0000462064801993395
352,0.0354557037353516,0.0000414724989347197
353,0.0348968505859375,0.0000531229552337187
354,0.0344705581665039,0.000057625331608683
355,0.0339374542236328,0.0000554178331786054
356,0.0335564613342285,0.0000530329961287787
357,0.0330204963684082,0.0000566493782420053
358,0.032371997833252,0.0000505177407766305
359,0.0319390296936035,0.000058462646957375
360,0.031409740447998,0.0000406613782474901
361,0.0309619903564453,0.0000359015949878111
362,0.0304503440856934,0.0000624638477089417
363,0.0298471450805664,0.0000721979328619324
364,0.0294370651245117,0.0000566945143986898
365,0.0290098190307617,0.0000548310899358032
366,0.0286760330200195,0.0000532245114805879
367,0.0281391143798828,0.0000527912790137509
368,0.0277886390686035,0.0000689289512618738
369,0.0272998809814453,0.000073054191597769
370,0.0268492698669434,0.0000700009291329558
371,0.0263748168945312,0.0000683242923894935
372,0.0259265899658203,0.0000573157470753354
373,0.025719165802002,0.0000661275322851552
374,0.0252881050109863,0.0000626419579100087
375,0.0247921943664551,0.0000608868958911864
376,0.0244302749633789,0.000079190866533962
377,0.024073600769043,0.0000735118367629275
378,0.0236020088195801,0.0000651716215639873
379,0.0232181549072266,0.0000611635437337267
380,0.022925853729248,0.000062605650042871
381,0.0226631164550781,0.0000681510239708759
382,0.0222349166870117,0.0000952171094637063
383,0.0217633247375488,0.0000778223953570303
384,0.0214877128601074,0.0000879657940490739
385,0.0210976600646973,0.0000759833690149006
386,0.0208339691162109,0.0000740004567511228
387,0.0206661224365234,0.0000707569145708356
388,0.0200901031494141,0.0000898354119274915
389,0.0196757316589355,0.000100471297866494
390,0.0194387435913086,0.0000830532069935974
391,0.019134521484375,0.0000720166198655569
392,0.0189666748046875,0.0000588715290678031
393,0.0184917449951172,0.0000716240522823877
394,0.0183453559875488,0.0000690871058512681
395,0.0179653167724609,0.0000712117622546332
396,0.0176305770874023,0.0000745240189226023
397,0.0174179077148437,0.0000934430515574647
398,0.0171585083007812,0.0000853764914209944
399,0.0169820785522461,0.0000837266850388231
400,0.0165901184082031,0.0000669561554953255
401,0.016242504119873,0.0000689454426254282
402,0.0159106254577637,0.0000847711331314107
403,0.0159268379211426,0.000110683755054124
404,0.0157923698425293,0.000100453191667416
405,0.0154342651367187,0.0000879606243041868
406,0.0152273178100586,0.0000804739524565194
407,0.0148859024047852,0.0000650179311716435
408,0.0146365165710449,0.0000788599860325111
409,0.0145225524902344,0.0000956673673931763
410,0.014091968536377,0.0000805840689631562
411,0.0141124725341797,0.0000691298771188395
412,0.0137014389038086,0.0000834192503978555
413,0.0134859085083008,0.0000939357099116249
414,0.0134649276733398,0.0000715478226707768
415,0.0131683349609375,0.0000797544893440139
416,0.0130276679992676,0.0000629858387983642
417,0.0129098892211914,0.000070758521276663
418,0.0126175880432129,0.0000750499879285783
419,0.0123095512390137,0.0000719487072073993
420,0.0122737884521484,0.0000715414665367377
421,0.0120682716369629,0.0000809640850193984
422,0.0119204521179199,0.0000595063352468893
423,0.0117034912109375,0.0000571896549597318
424,0.0115971565246582,0.0000682027173374906
425,0.0113539695739746,0.0000681893808654551
426,0.0112199783325195,0.0000824652609213821
427,0.011054515838623,0.0000858267147415907
428,0.0108351707458496,0.0000796489354514021
429,0.0108742713928223,0.0000638053732753839
430,0.0106391906738281,0.0000622633211956053
431,0.010373592376709,0.0000664533785782066
432,0.0103859901428223,0.0000455398209671241
433,0.010277271270752,0.0000593772364751237
434,0.0101051330566406,0.0000835540623237973
435,0.0100321769714355,0.0000781096526248084
436,0.00983095169067383,0.0000700382729228262
437,0.00968790054321289,0.0000494441276428822
438,0.00959682464599609,0.0000631606771310402
439,0.00950336456298828,0.0000648831534439522
440,0.0094141960144043,0.0000515701095094994
441,0.0092010498046875,0.0000374377907848599
442,0.00912332534790039,0.0000453622283707629
443,0.00902462005615234,0.0000678534417258993
444,0.00890159606933594,0.0000610500555926484
445,0.00879716873168945,0.0000691545408169088
446,0.00872945785522461,0.0000587845653159589
447,0.00860071182250977,0.000046767735362386
448,0.00862503051757813,0.0000732189628416063
449,0.0083770751953125,0.0000598093332926446
450,0.00820255279541016,0.0000619943322894678
451,0.00821018218994141,0.0000587420028474216
452,0.00817584991455078,0.0000791449138276466
453,0.00816535949707031,0.0000691874120711735
454,0.00802803039550781,0.0000625129695330723
455,0.00786972045898438,0.0000647129689808268
456,0.00774288177490234,0.0000794459933327583
457,0.00760459899902344,0.0000727329081837255
458,0.00762414932250977,0.0000646760659527861
459,0.00757122039794922,0.000060201517420472
460,0.0073857307434082,0.0000584023330469248
461,0.00735044479370117,0.0000660191334733448
462,0.00721073150634766,0.0000731195227307465
463,0.00725030899047852,0.0000672729190389572
464,0.00712013244628906,0.0000534344919446081
465,0.00704479217529297,0.0000761373223552365
466,0.00696086883544922,0.0000877432199688833
467,0.00683403015136719,0.0000807010792103829
468,0.00664758682250977,0.0000704332226354896
469,0.00671863555908203,0.0000604070064673851
470,0.00676631927490234,0.0000586335226018501
471,0.00671005249023438,0.0000841330487396199
472,0.00660419464111328,0.0000753870348117207
473,0.0064849853515625,0.0000832705686681483
474,0.00643634796142578,0.0000638837232832478
475,0.00645589828491211,0.0000660208554795131
476,0.0062255859375,0.000105838516119541
477,0.00632047653198242,0.0000816464415430622
478,0.00622987747192383,0.0000612211374118959
479,0.00613021850585938,0.0000759863613696921
480,0.00588369369506836,0.0000761194020688542
481,0.00589704513549805,0.0000661842417605117
482,0.00598049163818359,0.0000682177177520373
483,0.00592899322509766,0.000069510363278929
484,0.00580215454101563,0.0000524206500777049
485,0.00594043731689453,0.0000630940433770107
486,0.0053858757019043,0.0000765795131678952
487,0.00566005706787109,0.0000908296561690191
488,0.00550985336303711,0.0000854310693369357
489,0.00558853149414063,0.0000841573681645359
490,0.00536060333251953,0.0000947287151556623
491,0.00531721115112305,0.0000851391377283693
492,0.00540781021118164,0.0000648673819246041
493,0.0053257942199707,0.000063970863763336
494,0.00531339645385742,0.0000594881827306774
495,0.00536394119262695,0.0000686148622656022
496,0.00518512725830078,0.0000851231125430979
497,0.00513839721679688,0.0000939768498172078
498,0.00507497787475586,0.0000828682070865329
499,0.00492095947265625,0.0000549925774103443
500,0.00504398345947266,0.0000692104126599645
501,0.00488710403442383,0.0000640774049970337
502,0.00490856170654297,0.0000625002379524649
503,0.00475215911865234,0.0000800845132546065
504,0.00481653213500977,0.0000694072479040609
505,0.00483894348144531,0.0000791118688330039
506,0.00472068786621094,0.0000770899847908907
507,0.00469303131103516,0.000100654439695423
508,0.00472640991210938,0.0000657015161795355
509,0.00459051132202148,0.0000476431674214654
510,0.00448703765869141,0.0000587294216695185
511,0.00453042984008789,0.0000788152828651214
512,0.00440263748168945,0.000066526901269355
513,0.00431203842163086,0.0000781649412002279
514,0.00438785552978516,0.0000851778528123249
515,0.00423955917358398,0.0000990054500942132
516,0.00419902801513672,0.0000744278499946321
517,0.00434398651123047,0.0000770472057797809
518,0.00426959991455078,0.0000757691093471882
519,0.00419378280639648,0.0000871216852089419
520,0.00406980514526367,0.0000850429413208311
521,0.00414800643920898,0.0000852912268180659
522,0.00398063659667969,0.0000813339394923509
523,0.00400733947753906,0.0000839680314275569
524,0.00405073165893555,0.0000774504506477745
525,0.00402212142944336,0.000069740592852414
526,0.00403404235839844,0.0000603250833026274
527,0.00385665893554687,0.0000838989525820888
528,0.00394058227539062,0.000077968343490485
529,0.00380849838256836,0.0000817271624970571
530,0.00374364852905273,0.0000926586746329584
531,0.00382852554321289,0.0000675326675175825
532,0.00376749038696289,0.0000838772690635817
533,0.00365877151489258,0.0000828887830219997
534,0.00364351272583008,0.0000936156554550784
535,0.00356960296630859,0.000100631847627333
536,0.00364208221435547,0.0000829669250386466
537,0.00342416763305664,0.0000840384062970154
538,0.00362110137939453,0.0000737850613932979
539,0.00345230102539062,0.0000621243975179914
540,0.00348281860351562,0.0000592708779455447
541,0.00342655181884766,0.0000781809384905615
542,0.00348138809204102,0.0000790040173952703
543,0.00344562530517578,0.0000799424286326286
544,0.00339555740356445,0.0000565087240868589
545,0.00318241119384766,0.0000551133824968686
546,0.00315713882446289,0.0000701323559221277
547,0.00321340560913086,0.0000575137568790993
548,0.00323104858398437,0.0000487202984883059
549,0.00316524505615234,0.0000623910035468907
550,0.00317192077636719,0.0000616061798076981
551,0.00311517715454102,0.0000887173441280955
552,0.00315475463867187,0.0000854536889814293
553,0.00302457809448242,0.0000769925911531785
554,0.00301170349121094,0.0000879114965650992
555,0.00306129455566406,0.0000807630399838936
556,0.00299549102783203,0.0000882316264149391
557,0.00295209884643555,0.000073054191597769
558,0.00295829772949219,0.0000666020497749282
559,0.0029911994934082,0.0000831120464190685
560,0.00292015075683594,0.0000603891246867679
561,0.00283622741699219,0.0000656218716528215
562,0.00286006927490234,0.0000602807796407446
563,0.00285816192626953,0.0000766863269537911
564,0.00276708602905273,0.0000813115719595821
565,0.00279474258422852,0.0000792755220055405
566,0.00284051895141602,0.0000680023956281281
567,0.00274276733398437,0.000073358572439698
568,0.00262641906738281,0.0000758680736136448
569,0.00265836715698242,0.0000747783444599799
570,0.00266027450561523,0.0000730526353824973
571,0.00258064270019531,0.0000752375904972688
572,0.00255489349365234,0.0000718823119720523
573,0.00266695022583008,0.0000717556749004007
574,0.00260448455810547,0.0000677746485885701
575,0.00247335433959961,0.0000704800162273555
576,0.00252771377563477,0.0000754352767299078
577,0.00243902206420898,0.0000653179886862479
578,0.00242233276367187,0.0000554403945209773
579,0.00244665145874023,0.0000534961565532164
580,0.00244855880737305,0.0000618860419575028
581,0.00240612030029297,0.0000665901000036335
582,0.0023350715637207,0.0000784581895997774
583,0.00235557556152344,0.0000732003281105707
584,0.00242996215820312,0.0000559567948021395
585,0.00232553482055664,0.0000790629944113258
586,0.00224733352661133,0.0000557889286176449
587,0.00234508514404297,0.0000726374981580464
588,0.00221920013427734,0.0000822692664177741
589,0.00223875045776367,0.0000816074442298757
590,0.00224208831787109,0.0000608616837316032
591,0.00218343734741211,0.0000763028854854088
592,0.00224637985229492,0.0000773770225698249
593,0.00214385986328125,0.0000728672084613536
594,0.00221872329711914,0.0000580048443008963
595,0.00217723846435547,0.0000557379602642454
596,0.00211429595947266,0.0000629027559019724
597,0.0020751953125,0.0000732794929904869
598,0.00203275680541992,0.0000843314521428003
599,0.00200557708740234,0.0000711430812895136
600,0.00206232070922852,0.0000654084327678003
601,0.00203132629394531,0.0000588338605575908
602,0.00203371047973633,0.000044537713733046
603,0.00194883346557617,0.00005136246751598
604,0.00194263458251953,0.0000592382614528239
605,0.00192975997924805,0.0000622468858918108
606,0.00196313858032227,0.0000549594904582058
607,0.00195980072021484,0.0000647937307413598
608,0.00191593170166016,0.000068526991170845
609,0.00192594528198242,0.0000769866845485551
610,0.00191450119018555,0.0000752421234738962
611,0.00190162658691406,0.0000698171673311945
612,0.00188779830932617,0.0000675865159603196
613,0.00189733505249023,0.000064827059498463
614,0.00178194046020508,0.0000791564045051893
615,0.00178432464599609,0.0000777054394818694
616,0.00170183181762695,0.0000712947299211762
617,0.00173664093017578,0.0000727110218701817
618,0.00179958343505859,0.0000700853302096818
619,0.00180196762084961,0.0000725497981584744
620,0.00176143646240234,0.0000640969183470139
621,0.00169944763183594,0.0000634551843305509
622,0.00176858901977539,0.0000902873247581894
