Wavelength (nm),Absorbance (AU),Std.Dev.
190,0.0529370307922363,0.0000456433051087299
191,0.0506711006164551,0.0000320023105043242
192,0.0470390319824219,0.0000328559487396971
193,0.043004035949707,0.0000355267683920925
194,0.0389542579650879,0.0000401825498536523
195,0.0349888801574707,0.0000357246195257957
196,0.0313215255737305,0.0000303002719415246
197,0.027984619140625,0.0000211693009672945
198,0.024878978729248,0.0000250294090874109
199,0.0220322608947754,0.0000251217845286142
200,0.0194706916809082,0.0000300733638920704
201,0.0171709060668945,0.00002427951143034
202,0.0153083801269531,0.0000253823424720493
203,0.0137557983398437,0.0000312109863512461
204,0.0124664306640625,0.000027328843378602
205,0.0113525390625,0.0000277340354495162
206,0.0103631019592285,0.0000421117677332535
207,0.00956439971923828,0.0000319712113932996
208,0.00887298583984375,0.0000290636061814704
209,0.00829219818115234,0.0000296234484888771
210,0.00774860382080078,0.0000212573930253452
211,0.00731563568115234,0.0000254444123358189
212,0.00692272186279297,0.0000227661655351279
213,0.00658226013183594,0.0000256485649983801
214,0.00630950927734375,0.0000274642266698608
215,0.0060276985168457,0.000036590844317226
216,0.00571489334106445,0.0000271011773748024
217,0.00538778305053711,0.0000231487129145626
218,0.00509929656982422,0.0000251183902279891
219,0.00477933883666992,0.0000360209366746175
220,0.00452709197998047,0.0000370002283755614
221,0.00423812866210938,0.0000276262223862518
222,0.00395345687866211,0.0000257971767120534
223,0.00365018844604492,0.0000273527526776731
224,0.00340938568115234,0.0000283602883478113
225,0.00322771072387695,0.0000240158645372426
226,0.00309896469116211,0.0000235540180878228
227,0.00291728973388672,0.0000255869903804522
228,0.00281333923339844,0.0000251974714399242
229,0.00270938873291016,0.0000358032950820184
230,0.00267267227172852,0.0000365278738899453
231,0.00262880325317383,0.00003085011121514
232,0.00260782241821289,0.000026390793652182
233,0.00255346298217773,0.0000288018130183709
234,0.00248289108276367,0.0000210616198316993
235,0.00246620178222656,0.0000343612376546283
236,0.00239467620849609,0.0000479855521090839
237,0.00228023529052734,0.0000302589717158476
238,0.00226020812988281,0.0000319071407649929
239,0.00218534469604492,0.0000301389753209314
240,0.00216245651245117,0.0000228968742878418
241,0.00216579437255859,0.0000196297561269289
242,0.00215768814086914,0.0000246650905199595
243,0.00217485427856445,0.0000231812264602339
244,0.00210762023925781,0.0000271891276484702
245,0.00208044052124023,0.0000244253987204633
246,0.002044677734375,0.00003085011121514
247,0.0019526481628418,0.0000227817654256339
248,0.00191116333007812,0.0000278220282570673
249,0.00175046920776367,0.0000351592637858928
250,0.0016779899597168,0.0000280980113986339
251,0.00152826309204102,0.0000342726189156845
252,0.0014190673828125,0.0000279107619705723
253,0.00126838684082031,0.0000306717880493846
254,0.00117111206054687,0.0000216449407079525
255,0.00107765197753906,0.0000148478986602242
256,0.000920295715332031,0.0000230650722331039
257,0.000901699066162109,0.0000313418429792127
258,0.000720500946044922,0.0000368169548734659
259,0.000583648681640625,0.0000294859303986844
260,0.000544548034667969,0.0000310786642776495
261,0.000558853149414063,0.0000324459568714218
262,0.000500202178955078,0.0000352650013162733
263,0.000338554382324219,0.0000323010983279227
264,0.000324249267578125,0.0000286945451645222
265,0.000343799591064453,0.0000283883351202409
266,0.000255107879638672,0.0000314134008255016
267,0.000213146209716797,0.0000315848381507201
268,0.0000777244567871094,0.0000342900294420377
269,0.000181674957275391,0.0000447223941223677
270,0.000185966491699219,0.0000432136552077612
271,0.000120639801025391,0.0000374431046092998
272,0.000117778778076172,0.0000372620094613011
273,0.000202655792236328,0.0000322121059213022
274,0.000236988067626953,0.0000325526498829693
275,0.000258922576904297,0.000030761540822525
276,0.000276088714599609,0.0000298770920285208
277,0.000233173370361328,0.000031241022739982
278,0.000255107879638672,0.0000412581267292367
279,0.000237464904785156,0.0000374256420672935
280,0.000291347503662109,0.0000402419204303865
281,0.000226497650146484,0.0000430205169040197
282,0.000239372253417969,0.000028108124781749
283,0.000193595886230469,0.0000302542749410089
284,0.000133514404296875,0.0000230299266104078
285,0.0000786781311035156,0.000026071156112227
286,-0.0000181198120117187,0.000037160424841296
287,-0.000121593475341797,0.0000353543482096659
288,-0.000193595886230469,0.0000344174375228659
289,-0.0002899169921875,0.0000334100915318963
290,-0.000346660614013672,0.0000302660155114928
291,-0.000446796417236328,0.0000350645568909587
292,-0.000553607940673828,0.0000312855690273368
293,-0.000581264495849609,0.0000224607511537275
294,-0.000671863555908203,0.0000187359689681351
295,-0.000791549682617188,0.0000201650538511751
296,-0.000861644744873047,0.0000250951835530026
297,-0.000966072082519531,0.000031515473306852
298,-0.000837802886962891,0.0000311581249551981
299,-0.00100421905517578,0.0000420293478954702
300,-0.000970363616943359,0.0000362066696309941
301,-0.00105142593383789,0.0000291119726831628
302,-0.00112152099609375,0.0000337739083654799
303,-0.00113439559936523,0.0000347306399052241
304,-0.00112819671630859,0.0000353969297896008
305,-0.00116825103759766,0.0000365846298395458
306,-0.00121307373046875,0.0000376678719625177
307,-0.00122594833374023,0.0000337023025278195
308,-0.0012822151184082,0.0000346314783765318
309,-0.00135278701782227,0.000046042572289078
310,-0.00126123428344727,0.0000530565715894359
311,-0.00126457214355469,0.0000318607874042107
312,-0.00129795074462891,0.0000279458714612488
313,-0.0013580322265625,0.0000435020815675988
314,-0.00137519836425781,0.0000455535492462734
315,-0.00132322311401367,0.0000603429840609962
316,-0.00141096115112305,0.0000497044129884705
317,-0.00143957138061523,0.000046810256464224
318,-0.00134897232055664,0.0000379946768033244
319,-0.00141763687133789,0.0000363828626555366
320,-0.00144052505493164,0.0000501450443885206
321,-0.00149059295654297,0.0000381871845971285
322,-0.00154447555541992,0.0000356712759962296
323,-0.0014958381652832,0.0000445351610628199
324,-0.00159454345703125,0.0000488589420523868
325,-0.00156402587890625,0.0000475464275008579
326,-0.00156831741333008,0.000045664471720254
327,-0.00142097473144531,0.0000455410691635082
328,-0.00153350830078125,0.0000494372292643844
329,-0.00149822235107422,0.0000468745721329344
330,-0.00157403945922852,0.0000463918691680764
331,-0.00161981582641602,0.0000760865372484524
332,-0.00160074234008789,0.0000613287480646878
333,-0.00163030624389648,0.0000482678398670282
334,-0.0016484260559082,0.000037895056282853
335,-0.00165176391601562,0.000034666750086433
336,-0.00167465209960937,0.0000414251852378349
337,-0.00169563293457031,0.0000459931624210176
338,-0.00169658660888672,0.0000462495173135051
339,-0.00170516967773437,0.0000537421074420947
340,-0.00171566009521484,0.0000484981132171398
341,-0.00180387496948242,0.0000485917887367839
342,-0.00188541412353516,0.0000475536001699205
343,-0.00182342529296875,0.0000350158898905573
344,-0.00188589096069336,0.0000289106490921481
345,-0.00187778472900391,0.0000360753388732275
346,-0.00203037261962891,0.0000331804661886498
347,-0.00196313858032227,0.0000264306109670189
348,-0.00202703475952148,0.0000324187904049099
349,-0.00202417373657227,0.0000429153442382813
350,-0.00206470489501953,0.0000525516951385347
351,-0.00203895568847656,0.0000405711089317561
352,-0.00208282470703125,0.0000508955263013069
353,-0.00217580795288086,0.0000497044129884705
354,-0.00220966339111328,0.0000616670472926024
355,-0.0023040771484375,0.0000514895820110058
356,-0.00232744216918945,0.0000598948091599397
357,-0.00230264663696289,0.0000577603145747887
358,-0.00216245651245117,0.0000500156493232512
359,-0.00220203399658203,0.0000523870237997905
360,-0.00219583511352539,0.0000549429395102052
361,-0.00233936309814453,0.0000411367059873084
362,-0.00241613388061523,0.0000405669054703369
363,-0.00245857238769531,0.0000491720618305083
364,-0.00255823135375977,0.0000509412971746265
365,-0.00243234634399414,0.0000485449735722596
366,-0.00229167938232422,0.0000497764094858689
367,-0.0021977424621582,0.0000501416435332303
368,-0.00237178802490234,0.0000610323622183244
369,-0.00233745574951172,0.00008199380973894
370,-0.00246524810791016,0.000068505420669815
371,-0.00239229202270508,0.0000640685333278097
372,-0.00231027603149414,0.0000527697394645195
373,-0.00225496292114258,0.0000588473853611029
374,-0.00224733352661133,0.0000683176363454066
375,-0.00211048126220703,0.000094779107241054
376,-0.00217771530151367,0.0000696443482599631
377,-0.00208377838134766,0.0000519249173654214
378,-0.00202226638793945,0.0000604013601612114
379,-0.00207185745239258,0.0000923415809723447
380,-0.0020909309387207,0.0000877354455648068
381,-0.00220870971679687,0.0000812738127892455
382,-0.0020298957824707,0.0000760775716516207
383,-0.00211143493652344,0.0000553973148939306
384,-0.00203037261962891,0.0000664875852920477
385,-0.00205183029174805,0.0000496426185982515
386,-0.00206899642944336,0.000057190648896921
387,-0.00205135345458984,0.0000681326717357321
388,-0.00206804275512695,0.0000735443063156055
389,-0.00240182876586914,0.0000703330767345135
390,-0.00207662582397461,0.0000735180225452308
391,-0.00199794769287109,0.0000605376651415795
392,-0.00185585021972656,0.0000860859466098925
393,-0.00212907791137695,0.0000560217711442876
394,-0.00238180160522461,0.0000661326897014674
395,-0.00229454040527344,0.0000605695819143285
396,-0.00220108032226562,0.0000388139295880744
397,-0.00191926956176758,0.0000475894472992943
398,-0.00203609466552734,0.0000545879629911327
399,-0.00221872329711914,0.0000681393458476877
400,-0.00211954116821289,0.0000457651899520294
401,-0.0021967887878418,0.0000581702246681769
402,-0.0022273063659668,0.000057650973112268
403,-0.00212430953979492,0.000056348555356167
404,-0.00213909149169922,0.0000539743014463032
405,-0.0021662712097168,0.0000520495662124682
406,-0.00227928161621094,0.0000584791737758318
407,-0.00233840942382812,0.0000774064021595117
408,-0.0020136833190918,0.0000716192903087141
409,-0.00225067138671875,0.0000569526045676177
410,-0.00228023529052734,0.0000651559198707269
411,-0.00223779678344727,0.0000675713754231446
412,-0.0020604133605957,0.0000700658620620258
413,-0.00222921371459961,0.0000619209357891111
414,-0.00232601165771484,0.0000501325734579003
415,-0.00219440460205078,0.000058593760865429
416,-0.00223588943481445,0.0000838759136575515
417,-0.00239276885986328,0.0000501790402644207
418,-0.00231122970581055,0.0000450365059900449
419,-0.00233602523803711,0.0000596513565130657
420,-0.00220918655395508,0.0000681126454760326
421,-0.00207185745239258,0.0000647428274544446
422,-0.0023956298828125,0.0000621993817305815
423,-0.00241756439208984,0.0000674737215766244
424,-0.00238323211669922,0.0000674417007760511
425,-0.0025181770324707,0.0000756174132726477
426,-0.00229358673095703,0.0000582873696307594
427,-0.00215387344360352,0.0000417232513427734
428,-0.00248479843139648,0.0000416045544109111
429,-0.00204181671142578,0.0000492944466391684
430,-0.00240612030029297,0.0000524607564524653
431,-0.00275421142578125,0.0000618327449866003
432,-0.00259637832641602,0.0000541299442877896
433,-0.00233125686645508,0.0000658000723995804
434,-0.00258874893188477,0.0000577101023310022
435,-0.00265979766845703,0.0000517538587616544
436,-0.00246143341064453,0.0000562930449936076
437,-0.00244903564453125,0.0000427361562145891
438,-0.00243425369262695,0.0000494900922597089
439,-0.00245904922485352,0.0000511984122541637
440,-0.00245428085327148,0.0000455073558442694
441,-0.00229215621948242,0.0000554680708990325
442,-0.00278472900390625,0.0000454523620406817
443,-0.00252056121826172,0.0000633816858227282
444,-0.00264167785644531,0.0000777215313507161
445,-0.00252151489257812,0.0000611226378783487
446,-0.0025019645690918,0.000055875468118943
447,-0.00271940231323242,0.0000480471115341509
448,-0.00256204605102539,0.0000340504803858022
449,-0.00257492065429687,0.0000418850622095887
450,-0.00277280807495117,0.0000594547293768814
451,-0.0026397705078125,0.0000611207778708051
452,-0.00257158279418945,0.0000464983470651344
453,-0.00277042388916016,0.0000349955919989376
454,-0.00262022018432617,0.0000439686783455687
455,-0.00277423858642578,0.0000508239966932239
456,-0.00278663635253906,0.0000623126010975635
457,-0.00262355804443359,0.0000501597787636377
458,-0.00272178649902344,0.0000617554747225647
459,-0.0028986930847168,0.000046548441865827
460,-0.00275230407714844,0.0000678802440541952
461,-0.00278568267822266,0.0000505379906234293
462,-0.00283527374267578,0.0000406390045594367
463,-0.0025486946105957,0.0000452555895062136
464,-0.00278234481811523,0.0000468854848986887
465,-0.0028228759765625,0.0000435020815675988
466,-0.00300073623657227,0.00006687120512554
467,-0.00288105010986328,0.0000736956417411304
468,-0.0028386116027832,0.0000741201912170994
469,-0.00288677215576172,0.0000594814935650948
470,-0.00273704528808594,0.0000642740407095126
471,-0.00280618667602539,0.0000433554860990994
472,-0.00276088714599609,0.0000498619840573359
473,-0.00282382965087891,0.0000751529247468779
474,-0.00274658203125,0.0000712803770434365
475,-0.00276470184326172,0.0000447782844344906
476,-0.00296354293823242,0.0000436090979201266
477,-0.0029444694519043,0.0000502944543593621
478,-0.00282430648803711,0.0000696541419199726
479,-0.00275421142578125,0.000089508317087954
480,-0.00287580490112305,0.0000541929153936426
481,-0.00298118591308594,0.0000444546769205992
482,-0.00300264358520508,0.0000530683553922662
483,-0.00279951095581055,0.0000516736176164162
484,-0.0030670166015625,0.0000419826617619354
485,-0.0000238418579101562,0.0000337806399233455
486,-0.00499820709228516,0.000030454182342216
487,-0.00342988967895508,0.0000512805054902806
488,-0.00350236892700195,0.0000488694117011653
489,-0.00281476974487305,0.0000512439125915839
490,-0.00291347503662109,0.000049920090974054
491,-0.00295734405517578,0.0000493681924631235
492,-0.00290822982788086,0.0000602892658409066
493,-0.00291585922241211,0.000064811274328918
494,-0.00299167633056641,0.0000582307789908818
495,-0.00290870666503906,0.0000674231554670689
496,-0.00310659408569336,0.0000817883459396257
497,-0.00308036804199219,0.0000880794516679292
498,-0.00295639038085937,0.0000745545227996615
499,-0.00293302536010742,0.0000451373661040283
500,-0.00311708450317383,0.0000525094931918254
501,-0.00301837921142578,0.0000696296551871115
502,-0.00293827056884766,0.0000640277078165498
503,-0.00297451019287109,0.0000586393391310646
504,-0.00303220748901367,0.0000502469630139141
505,-0.00300264358520508,0.0000702392625941307
506,-0.00307035446166992,0.0000611300773425776
507,-0.00321245193481445,0.000052638157347605
508,-0.00304126739501953,0.0000435386533113993
509,-0.0031886100769043,0.0000590354444142996
510,-0.00306415557861328,0.0000778895654640358
511,-0.00299406051635742,0.0000807024879380799
512,-0.00304126739501953,0.0000756339493909731
513,-0.0030207633972168,0.0000653197291765072
514,-0.00322198867797852,0.0000611375159015419
515,-0.00309038162231445,0.0000607364018558146
516,-0.00302696228027344,0.0000526597507182256
517,-0.00308704376220703,0.0000491049674480645
518,-0.00314903259277344,0.0000583516991163274
519,-0.00316858291625977,0.0000629786185497248
520,-0.00314855575561523,0.0000709494594809412
521,-0.00315570831298828,0.00006482530578055
522,-0.00313520431518555,0.0000461350731637449
523,-0.00312137603759766,0.0000551412230084229
524,-0.00317573547363281,0.0000536743714886674
525,-0.00323867797851562,0.0000526197960154727
526,-0.00319766998291016,0.0000418246263823421
527,-0.00313663482666016,0.0000329880343559799
528,-0.00308656692504883,0.000039852291313938
529,-0.00305604934692383,0.000052333828519911
530,-0.0030817985534668,0.0000553932103249705
531,-0.00309371948242187,0.0000543573446038785
532,-0.00306415557861328,0.0000600436257884872
533,-0.00310087203979492,0.0000625947535759809
534,-0.00306987762451172,0.0000709670832926618
535,-0.00315046310424805,0.0000701566671979196
536,-0.00323581695556641,0.0000661653440026121
537,-0.00312423706054687,0.0000487447936541101
538,-0.00307178497314453,0.0000481947692337077
539,-0.00320005416870117,0.0000422821755186659
540,-0.00316286087036133,0.0000536139721057239
541,-0.00310039520263672,0.0000545171073935165
542,-0.00308990478515625,0.0000532906859243336
543,-0.00315380096435547,0.0000660931392250011
544,-0.00317287445068359,0.0000577504724777324
545,-0.00320053100585937,0.0000409525118896177
546,-0.00318574905395508,0.0000392500998465688
547,-0.0031280517578125,0.0000438521705285056
548,-0.00320911407470703,0.0000457477977133023
549,-0.00315761566162109,0.000043782117020813
550,-0.00326251983642578,0.0000409552878606014
551,-0.00314235687255859,0.0000550669503654294
552,-0.00316572189331055,0.0000480447453224564
553,-0.00319528579711914,0.0000558225422383243
554,-0.00322294235229492,0.0000405304572100845
555,-0.00310468673706055,0.0000336187105227051
556,-0.00325727462768555,0.0000483043337330974
557,-0.0031580924987793,0.0000440474695363661
558,-0.00325775146484375,0.0000470585370786147
559,-0.00318241119384766,0.0000574811322496637
560,-0.00321769714355469,0.0000611691196854575
561,-0.00327110290527344,0.0000525646735363795
562,-0.00320863723754883,0.0000446409742100484
563,-0.00319814682006836,0.0000534706487884795
564,-0.00314664840698242,0.0000393672322093016
565,-0.00327444076538086,0.0000328853469470351
566,-0.00323867797851562,0.0000443958185596308
567,-0.00313186645507812,0.0000485695571600517
568,-0.00319337844848633,0.0000419934921543666
569,-0.00319480895996094,0.0000318830810852375
570,-0.00327873229980469,0.0000313409361365413
571,-0.00323390960693359,0.0000355675454135829
572,-0.00351095199584961,0.0000411215031859405
573,-0.00310707092285156,0.0000336009521503985
574,-0.00323343276977539,0.0000266464096078694
575,-0.00348758697509766,0.0000255063311525187
576,-0.00315427780151367,0.0000304569819973931
577,-0.00316667556762695,0.0000363984829819713
578,-0.00343561172485352,0.00003577470580803
579,-0.00331020355224609,0.0000368609310928237
580,-0.00298976898193359,0.0000362936984235763
581,-0.00286197662353516,0.0000283121435265097
582,-0.00369071960449219,0.0000212159047002316
583,-0.00370168685913086,0.000026177773703592
584,-0.00289297103881836,0.000024453890619198
585,-0.00311279296875,0.0000339426341563358
586,-0.00352811813354492,0.0000429186554796919
587,-0.00298166275024414,0.0000340538189955157
588,-0.0033721923828125,0.0000348507292721241
589,-0.00339508056640625,0.0000289911502234028
590,-0.00327634811401367,0.0000328931244274031
591,-0.00335121154785156,0.0000264402871932142
592,-0.00274419784545898,0.0000246961831598942
593,-0.00315332412719727,0.0000229749426014835
594,-0.00310277938842773,0.0000301097274549443
595,-0.00323772430419922,0.0000242906296290398
596,-0.00335168838500977,0.0000291451476192262
597,-0.00309324264526367,0.0000376376784808813
598,-0.00311136245727539,0.0000497809771765861
599,-0.00305509567260742,0.0000379227965368911
600,-0.00311183929443359,0.0000371673077469348
601,-0.00324821472167969,0.0000358215485059465
602,-0.00321054458618164,0.0000348229903161348
603,-0.00323724746704102,0.0000333163839588722
604,-0.00344657897949219,0.0000236467484304665
605,-0.00309038162231445,0.0000274538760903608
606,-0.00342321395874023,0.0000258131469582147
607,-0.00327730178833008,0.0000195019256675578
608,-0.00339269638061523,0.000017793758542104
