Wavelength (nm),Absorbance (AU),Std.Dev.
190,0.0529370307922363,0.0000456433051087299
191,0.0506711006164551,0.0000320023105043242
192,0.0470390319824219,0.0000328559487396971
193,0.043004035949707,0.0000355267683920925
194,0.0389542579650879,0.0000401825498536523
195,0.0349888801574707,0.0000357246195257957
196,0.0313215255737305,0.0000303002719415246
197,0.027984619140625,0.0000211693009672945
198,0.024878978729248,0.0000250294090874109
199,0.0220322608947754,0.0000251217845286142
200,0.0194706916809082,0.0000300733638920704
201,0.0171709060668945,0.00002427951143034
202,0.0153083801269531,0.0000253823424720493
203,0.0137557983398437,0.0000312109863512461
204,0.0124664306640625,0.000027328843378602
205,0.0113525390625,0.0000277340354495162
206,0.0103631019592285,0.0000421117677332535
207,0.00956439971923828,0.0000319712113932996
208,0.00887298583984375,0.0000290636061814704
209,0.00829219818115234,0.0000296234484888771
210,0.00774860382080078,0.0000212573930253452
211,0.00731563568115234,0.0000254444123358189
212,0.00692272186279297,0.0000227661655351279
213,0.00658226013183594,0.0000256485649983801
214,0.00630950927734375,0.0000274642266698608
215,0.0060276985168457,0.000036590844317226
216,0.00571489334106445,0.0000271011773748024
217,0.00538778305053711,0.0000231487129145626
218,0.00509929656982422,0.0000251183902279891
219,0.00477933883666992,0.0000360209366746175
220,0.00452709197998047,0.0000370002283755614
221,0.00423812866210938,0.0000276262223862518
222,0.00395345687866211,0.0000257971767120534
223,0.00365018844604492,0.0000273527526776731
224,0.00340938568115234,0.0000283602883478113
225,0.00322771072387695,0.0000240158645372426
226,0.00309896469116211,0.0000235540180878228
227,0.00291728973388672,0.0000255869903804522
228,0.00281333923339844,0.0000251974714399242
229,0.00270938873291016,0.0000358032950820184
230,0.00267267227172852,0.0000365278738899453
231,0.00262880325317383,0.00003085011121514
232,0.00260782241821289,0.000026390793652182
233,0.00255346298217773,0.0000288018130183709
234,0.00248289108276367,0.0000210616198316993
235,0.00246620178222656,0.0000343612376546283
236,0.00239467620849609,0.0000479855521090839
237,0.00228023529052734,0.0000302589717158476
238,0.00226020812988281,0.0000319071407649929
239,0.00218534469604492,0.0000301389753209314
240,0.00216245651245117,0.0000228968742878418
241,0.00216579437255859,0.0000196297561269289
242,0.00215768814086914,0.0000246650905199595
243,0.00217485427856445,0.0000231812264602339
244,0.00210762023925781,0.0000271891276484702
245,0.00208044052124023,0.0000244253987204633
246,0.002044677734375,0.00003085011121514
247,0.0019526481628418,0.0000227817654256339
248,0.00191116333007812,0.0000278220282570673
249,0.00175046920776367,0.0000351592637858928
250,0.0016779899597168,0.0000280980113986339
251,0.00152826309204102,0.0000342726189156845
252,0.0014190673828125,0.0000279107619705723
253,0.00126838684082031,0.0000306717880493846
254,0.00117111206054687,0.0000216449407079525
255,0.00107765197753906,0.0000148478986602242
256,0.000920295715332031,0.0000230650722331039
257,0.000901699066162109,0.0000313418429792127
258,0.000720500946044922,0.0000368169548734659
259,0.000583648681640625,0.0000294859303986844
260,0.000544548034667969,0.0000310786642776495
261,0.000558853149414063,0.0000324459568714218
262,0.000500202178955078,0.0000352650013162733
263,0.000338554382324219,0.0000323010983279227
264,0.000324249267578125,0.0000286945451645222
265,0.000343799591064453,0.0000283883351202409
266,0.000255107879638672,0.0000314134008255016
267,0.000213146209716797,0.0000315848381507201
268,0.0000777244567871094,0.0000342900294420377
269,0.000181674957275391,0.0000447223941223677
270,0.000185966491699219,0.0000432136552077612
271,0.000120639801025391,0.0000374431046092998
272,0.000117778778076172,0.0000372620094613011
273,0.000202655792236328,0.0000322121059213022
274,0.000236988067626953,0.0000325526498829693
275,0.000258922576904297,0.000030761540822525
276,0.000276088714599609,0.0000298770920285208
277,0.000233173370361328,0.000031241022739982
278,0.000255107879638672,0.0000412581267292367
279,0.000237464904785156,0.0000374256420672935
280,0.000291347503662109,0.0000402419204303865
281,0.000226497650146484,0.0000430205169040197
282,0.000239372253417969,0.000028108124781749
283,0.000193595886230469,0.0000302542749410089
284,0.000133514404296875,0.0000230299266104078
285,0.0000786781311035156,0.000026071156112227
286,-0.0000181198120117187,0.000037160424841296
287,-0.000121593475341797,0.0000353543482096659
288,-0.000193595886230469,0.0000344174375228659
289,-0.0002899169921875,0.0000334100915318963
290,-0.000346660614013672,0.0000302660155114928
291,-0.000446796417236328,0.0000350645568909587
292,-0.000553607940673828,0.0000312855690273368
293,-0.000581264495849609,0.0000224607511537275
294,-0.000671863555908203,0.0000187359689681351
295,-0.000791549682617188,0.0000201650538511751
296,-0.000861644744873047,0.0000250951835530026
297,-0.000966072082519531,0.000031515473306852
298,-0.000837802886962891,0.0000311581249551981
299,-0.00100421905517578,0.0000420293478954702
300,-0.000970363616943359,0.0000362066696309941
301,-0.00105142593383789,0.0000291119726831628
302,-0.00112152099609375,0.0000337739083654799
303,-0.00113439559936523,0.0000347306399052241
304,-0.00112819671630859,0.0000353969297896008
305,-0.00116825103759766,0.0000365846298395458
306,-0.00121307373046875,0.0000376678719625177
307,-0.00122594833374023,0.0000337023025278195
308,-0.0012822151184082,0.0000346314783765318
309,-0.00135278701782227,0.000046042572289078
310,-0.00126123428344727,0.0000530565715894359
311,-0.00126457214355469,0.0000318607874042107
312,-0.00129795074462891,0.0000279458714612488
313,-0.0013580322265625,0.0000435020815675988
314,-0.00137519836425781,0.0000455535492462734
315,-0.00132322311401367,0.0000603429840609962
316,-0.00141096115112305,0.0000497044129884705
317,-0.00143957138061523,0.000046810256464224
318,-0.00134897232055664,0.0000379946768033244
319,-0.00141763687133789,0.0000363828626555366
320,-0.00144052505493164,0.0000501450443885206
321,-0.00149059295654297,0.0000381871845971285
322,-0.00154447555541992,0.0000356712759962296
323,-0.0014958381652832,0.0000445351610628199
324,-0.00159454345703125,0.0000488589420523868
325,-0.00156402587890625,0.0000475464275008579
326,-0.00156831741333008,0.000045664471720254
327,-0.00142097473144531,0.0000455410691635082
328,-0.00153350830078125,0.0000494372292643844
329,-0.00149822235107422,0.0000468745721329344
330,-0.00157403945922852,0.0000463918691680764
331,-0.00161981582641602,0.0000760865372484524
332,-0.00160074234008789,0.0000613287480646878
333,-0.00163030624389648,0.0000482678398670282
334,-0.0016484260559082,0.000037895056282853
335,-0.00165176391601562,0.000034666750086433
336,-0.00167465209960937,0.0000414251852378349
337,-0.00169563293457031,0.0000459931624210176
338,-0.00169658660888672,0.0000462495173135051
339,-0.00170516967773437,0.0000537421074420947
340,-0.00171566009521484,0.0000484981132171398
341,-0.00180387496948242,0.0000485917887367839
342,-0.00188541412353516,0.0000475536001699205
343,-0.00182342529296875,0.0000350158898905573
344,-0.00188589096069336,0.0000289106490921481
345,-0.00187778472900391,0.0000360753388732275
346,-0.00203037261962891,0.0000331804661886498
347,-0.00196313858032227,0.0000264306109670189
348,-0.00202703475952148,0.0000324187904049099
349,-0.00202417373657227,0.0000429153442382813
350,-0.00206470489501953,0.0000525516951385347
351,-0.00203895568847656,0.0000405711089317561
352,-0.00208282470703125,0.0000508955263013069
353,-0.00217580795288086,0.0000497044129884705
354,-0.00220966339111328,0.0000616670472926024
355,-0.0023040771484375,0.0000514895820110058
356,-0.00232744216918945,0.0000598948091599397
357,-0.00230264663696289,0.0000577603145747887
358,-0.00216245651245117,0.0000500156493232512
359,-0.00220203399658203,0.0000523870237997905
360,-0.00219583511352539,0.0000549429395102052
361,-0.00233936309814453,0.0000411367059873084
362,-0.00241613388061523,0.0000405669054703369
363,-0.00245857238769531,0.0000491720618305083
364,-0.00255823135375977,0.0000509412971746265
365,-0.00243234634399414,0.0000485449735722596
366,-0.00229167938232422,0.0000497764094858689
367,-0.0021977424621582,0.0000501416435332303
368,-0.00237178802490234,0.0000610323622183244
369,-0.00233745574951172,0.00008199380973894
370,-0.00246524810791016,0.000068505420669815
371,-0.00239229202270508,0.0000640685333278097
372,-0.00231027603149414,0.0000527697394645195
373,-0.00225496292114258,0.0000588473853611029
374,-0.00224733352661133,0.0000683176363454066
375,-0.00211048126220703,0.000094779107241054
376,-0.00217771530151367,0.0000696443482599631
377,-0.00208377838134766,0.0000519249173654214
378,-0.00202226638793945,0.0000604013601612114
379,-0.00207185745239258,0.0000923415809723447
380,-0.0020909309387207,0.0000877354455648068
381,-0.00220870971679687,0.0000812738127892455
382,-0.0020298957824707,0.0000760775716516207
383,-0.00211143493652344,0.0000553973148939306
384,-0.00203037261962891,0.0000664875852920477
385,-0.00205183029174805,0.0000496426185982515
386,-0.00206899642944336,0.000057190648896921
387,-0.00205135345458984,0.0000681326717357321
388,-0.00206804275512695,0.0000735443063156055
389,-0.00240182876586914,0.0000703330767345135
390,-0.00207662582397461,0.0000735180225452308
391,-0.00199794769287109,0.0000605376651415795
392,-0.00185585021972656,0.0000860859466098925
393,-0.00212907791137695,0.0000560217711442876
394,-0.00238180160522461,0.0000661326897014674
395,-0.00229454040527344,0.0000605695819143285
396,-0.00220108032226562,0.0000388139295880744
397,-0.00191926956176758,0.0000475894472992943
398,-0.00203609466552734,0.0000545879629911327
399,-0.00221872329711914,0.0000681393458476877
400,-0.00211954116821289,0.0000457651899520294
401,-0.0021967887878418,0.0000581702246681769
402,-0.0022273063659668,0.000057650973112268
403,-0.00212430953979492,0.000056348555356167
404,-0.00213909149169922,0.0000539743014463032
405,-0.0021662712097168,0.0000520495662124682
406,-0.00227928161621094,0.0000584791737758318
407,-0.00233840942382812,0.0000774064021595117
408,-0.0020136833190918,0.0000716192903087141
409,-0.00225067138671875,0.0000569526045676177
410,-0.00228023529052734,0.0000651559198707269
411,-0.00223779678344727,0.0000675713754231446
412,-0.0020604133605957,0.0000700658620620258
413,-0.00222921371459961,0.0000619209357891111
414,-0.00232601165771484,0.0000501325734579003
415,-0.00219440460205078,0.000058593760865429
416,-0.00223588943481445,0.0000838759136575515
417,-0.00239276885986328,0.0000501790402644207
418,-0.00231122970581055,0.0000450365059900449
419,-0.00233602523803711,0.0000596513565130657
420,-0.00220918655395508,0.0000681126454760326
421,-0.00207185745239258,0.0000647428274544446
422,-0.0023956298828125,0.0000621993817305815
423,-0.00241756439208984,0.0000674737215766244
424,-0.00238323211669922,0.0000674417007760511
425,-0.0025181770324707,0.0000756174132726477
426,-0.00229358673095703,0.0000582873696307594
427,-0.00215387344360352,0.0000417232513427734
428,-0.00248479843139648,0.0000416045544109111
429,-0.00204181671142578,0.0000492944466391684
430,-0.00240612030029297,0.0000524607564524653
431,-0.00275421142578125,0.0000618327449866003
432,-0.00259637832641602,0.0000541299442877896
433,-0.00233125686645508,0.0000658000723995804
434,-0.00258874893188477,0.0000577101023310022
435,-0.00265979766845703,0.0000517538587616544
436,-0.00246143341064453,0.0000562930449936076
437,-0.00244903564453125,0.0000427361562145891
438,-0.00243425369262695,0.0000494900922597089
439,-0.00245904922485352,0.0000511984122541637
440,-0.00245428085327148,0.0000455073558442694
441,-0.00229215621948242,0.0000554680708990325
442,-0.00278472900390625,0.0000454523620406817
443,-0.00252056121826172,0.0000633816858227282
444,-0.00264167785644531,0.0000777215313507161
445,-0.00252151489257812,0.0000611226378783487
446,-0.0025019645690918,0.000055875468118943
447,-0.00271940231323242,0.0000480471115341509
448,-0.00256204605102539,0.0000340504803858022
449,-0.00257492065429687,0.0000418850622095887
450,-0.00277280807495117,0.0000594547293768814
451,-0.0026397705078125,0.0000611207778708051
452,-0.00257158279418945,0.0000464983470651344
453,-0.00277042388916016,0.0000349955919989376
454,-0.00262022018432617,0.0000439686783455687
455,-0.00277423858642578,0.0000508239966932239
456,-0.00278663635253906,0.0000623126010975635
457,-0.00262355804443359,0.0000501597787636377
458,-0.00272178649902344,0.0000617554747225647
459,-0.0028986930847168,0.000046548441865827
460,-0.00275230407714844,0.0000678802440541952
461,-0.00278568267822266,0.0000505379906234293
462,-0.00283527374267578,0.0000406390045594367
463,-0.0025486946105957,0.0000452555895062136
464,-0.00278234481811523,0.0000468854848986887
465,-0.0028228759765625,0.0000435020815675988
466,-0.00300073623657227,0.00006687120512554
467,-0.00288105010986328,0.0000736956417411304
468,-0.0028386116027832,0.0000741201912170994
469,-0.00288677215576172,0.0000594814935650948
470,-0.00273704528808594,0.0000642740407095126
471,-0.00280618667602539,0.0000433554860990994
472,-0.00276088714599609,0.0000498619840573359
473,-0.00282382965087891,0.0000751529247468779
474,-0.00274658203125,0.0000712803770434365
475,-0.00276470184326172,0.0000447782844344906
476,-0.00296354293823242,0.0000436090979201266
477,-0.0029444694519043,0.0000502944543593621
478,-0.00282430648803711,0.0000696541419199726
479,-0.00275421142578125,0.000089508317087954
480,-0.00287580490112305,0.0000541929153936426
481,-0.00298118591308594,0.0000444546769205992
482,-0.00300264358520508,0.0000530683553922662
483,-0.00279951095581055,0.0000516736176164162
484,-0.0030670166015625,0.0000419826617619354
485,-0.0000238418579101562,0.0000337806399233455
486,-0.00499820709228516,0.000030454182342216
487,-0.00342988967895508,0.0000512805054902806
488,-0.00350236892700195,0.0000488694117011653
489,-0.00281476974487305,0.0000512439125915839
490,-0.00291347503662109,0.000049920090974054
491,-0.00295734405517578,0.0000493681924631235
492,-0.00290822982788086,0.0000602892658409066
493,-0.00291585922241211,0.000064811274328918
494,-0.00299167633056641,0.0000582307789908818
495,-0.00290870666503906,0.0000674231554670689
496,-0.00310659408569336,0.0000817883459396257
497,-0.00308036804199219,0.0000880794516679292
498,-0.00295639038085937,0.0000745545227996615
499,-0.00293302536010742,0.0000451373661040283
500,-0.00311708450317383,0.0000525094931918254
501,-0.00301837921142578,0.0000696296551871115
502,-0.00293827056884766,0.0000640277078165498
503,-0.00297451019287109,0.0000586393391310646
504,-0.00303220748901367,0.0000502469630139141
505,-0.00300264358520508,0.0000702392625941307
506,-0.00307035446166992,0.0000611300773425776
507,-0.00321245193481445,0.000052638157347605
508,-0.00304126739501953,0.0000435386533113993
509,-0.0031886100769043,0.0000590354444142996
510,-0.00306415557861328,0.0000778895654640358
511,-0.00299406051635742,0.0000807024879380799
512,-0.00304126739501953,0.0000756339493909731
513,-0.0030207633972168,0.0000653197291765072
514,-0.00322198867797852,0.0000611375159015419
515,-0.00309038162231445,0.0000607364018558146
516,-0.00302696228027344,0.0000526597507182256
517,-0.00308704376220703,0.0000491049674480645
518,-0.00314903259277344,0.0000583516991163274
519,-0.00316858291625977,0.0000629786185497248
520,-0.00314855575561523,0.0000709494594809412
521,-0.00315570831298828,0.00006482530578055
522,-0.00313520431518555,0.0000461350731637449
523,-0.00312137603759766,0.0000551412230084229
524,-0.00317573547363281,0.0000536743714886674
525,-0.00323867797851562,0.0000526197960154727
526,-0.00319766998291016,0.0000418246263823421
527,-0.00313663482666016,0.0000329880343559799
528,-0.00308656692504883,0.000039852291313938
529,-0.00305604934692383,0.000052333828519911
530,-0.0030817985534668,0.0000553932103249705
531,-0.00309371948242187,0.0000543573446038785
532,-0.00306415557861328,0.0000600436257884872
533,-0.00310087203979492,0.0000625947535759809
534,-0.00306987762451172,0.0000709670832926618
535,-0.00315046310424805,0.0000701566671979196
536,-0.00323581695556641,0.0000661653440026121
537,-0.00312423706054687,0.0000487447936541101
538,-0.00307178497314453,0.0000481947692337077
539,-0.00320005416870117,0.0000422821755186659
540,-0.00316286087036133,0.0000536139721057239
541,-0.00310039520263672,0.0000545171073935165
542,-0.00308990478515625,0.0000532906859243336
543,-0.00315380096435547,0.0000660931392250011
544,-0.00317287445068359,0.0000577504724777324
545,-0.00320053100585937,0.0000409525118896177
546,-0.00318574905395508,0.0000392500998465688
547,-0.0031280517578125,0.0000438521705285056
548,-0.00320911407470703,0.0000457477977133023
549,-0.00315761566162109,0.000043782117020813
550,-0.00326251983642578,0.0000409552878606014
551,-0.00314235687255859,0.0000550669503654294
552,-0.00316572189331055,0.0000480447453224564
553,-0.00319528579711914,0.0000558225422383243
554,-0.00322294235229492,0.0000405304572100845
555,-0.00310468673706055,0.0000336187105227051
556,-0.00325727462768555,0.0000483043337330974
557,-0.0031580924987793,0.0000440474695363661
558,-0.00325775146484375,0.0000470585370786147
559,-0.00318241119384766,0.0000574811322496637
560,-0.00321769714355469,0.0000611691196854575
561,-0.00327110290527344,0.0000525646735363795
562,-0.00320863723754883,0.0000446409742100484
563,-0.00319814682006836,0.0000534706487884795
564,-0.00314664840698242,0.0000393672322093016
565,-0.00327444076538086,0.0000328853469470351
566,-0.00323867797851562,0.0000443958185596308
567,-0.00313186645507812,0.0000485695571600517
568,-0.00319337844848633,0.0000419934921543666
569,-0.00319480895996094,0.0000318830810852375
570,-0.00327873229980469,0.0000313409361365413
571,-0.00323390960693359,0.0000355675454135829
572,-0.00351095199584961,0.0000411215031859405
573,-0.00310707092285156,0.0000336009521503985
574,-0.00323343276977539,0.0000266464096078694
575,-0.00348758697509766,0.0000255063311525187
576,-0.00315427780151367,0.0000304569819973931
577,-0.00316667556762695,0.0000363984829819713
578,-0.00343561172485352,0.00003577470580803
579,-0.00331020355224609,0.0000368609310928237
580,-0.00298976898193359,0.0000362936984235763
581,-0.00286197662353516,0.0000283121435265097
582,-0.00369071960449219,0.0000212159047002316
583,-0.00370168685913086,0.000026177773703592
584,-0.00289297103881836,0.000024453890619198
585,-0.00311279296875,0.0000339426341563358
586,-0.00352811813354492,0.0000429186554796919
587,-0.00298166275024414,0.0000340538189955157
588,-0.0033721923828125,0.0000348507292721241
589,-0.00339508056640625,0.0000289911502234028
590,-0.00327634811401367,0.0000328931244274031
591,-0.00335121154785156,0.0000264402871932142
592,-0.00274419784545898,0.0000246961831598942
593,-0.00315332412719727,0.0000229749426014835
594,-0.00310277938842773,0.0000301097274549443
595,-0.00323772430419922,0.0000242906296290398
596,-0.00335168838500977,0.0000291451476192262
597,-0.00309324264526367,0.0000376376784808813
598,-0.00311136245727539,0.0000497809771765861
599,-0.00305509567260742,0.0000379227965368911
600,-0.00311183929443359,0.0000371673077469348
601,-0.00324821472167969,0.0000358215485059465
602,-0.00321054458618164,0.0000348229903161348
603,-0.00323724746704102,0.0000333163839588722
604,-0.00344657897949219,0.0000236467484304665
605,-0.00309038162231445,0.0000274538760903608
606,-0.00342321395874023,0.0000258131469582147
607,-0.00327730178833008,0.0000195019256675578
608,-0.00339269638061523,0.000017793758542104
609,-0.00345277786254883,0.0000261484428554977
610,-0.00322151184082031,0.0000247088393145957
611,-0.00345039367675781,0.0000307254861709347
612,-0.00338554382324219,0.0000361438162381768
613,-0.00332546234130859,0.0000208857941275366
614,-0.00361013412475586,0.0000242888744623314
615,-0.00349044799804687,0.0000250401943232105
616,-0.00376176834106445,0.0000308003217088397
617,-0.0035710334777832,0.0000334288015248023
618,-0.00346088409423828,0.0000298808969369419
619,-0.00330209732055664,0.0000271771036530369
620,-0.00319528579711914,0.0000383461283455238
621,-0.0034942626953125,0.0000311307476324921
622,-0.00328302383422852,0.0000463158389859147
623,-0.00358486175537109,0.0000437795202937255
624,-0.00349760055541992,0.0000471092428209546
625,-0.00370883941650391,0.0000336339245219606
626,-0.0035395622253418,0.0000265630826207955
627,-0.00340843200683594,0.0000354731273405899
628,-0.00348663330078125,0.0000354169976706306
629,-0.003387451171875,0.0000388702723597388
630,-0.00357961654663086,0.00004253149560511
631,-0.0035862922668457,0.000031859003235798
632,-0.00349807739257812,0.0000304728418515596
633,-0.00347900390625,0.0000258813223745573
634,-0.00352096557617187,0.0000231333604749737
635,-0.00354385375976562,0.0000290797372870322
636,-0.00338029861450195,0.0000370616293941937
637,-0.00352668762207031,0.0000377711017388765
638,-0.00378274917602539,0.0000389812554054782
639,-0.00380373001098633,0.0000404054431122994
640,-0.00361537933349609,0.000034534501170838
641,-0.00342607498168945,0.00002968670352225
642,-0.00324583053588867,0.0000422694019549948
643,-0.00328207015991211,0.000038067167966879
644,-0.00339174270629883,0.0000357699387074947
645,-0.00347042083740234,0.0000366242290684526
646,-0.00356912612915039,0.0000353398748694844
647,-0.0034642219543457,0.000030661593313768
648,-0.00352859497070312,0.0000392066286848789
649,-0.00355815887451172,0.0000477992089651211
650,-0.00353670120239258,0.0000526262772171497
651,-0.00350332260131836,0.0000446944227572805
652,-0.00360631942749023,0.0000426809213142396
653,-0.00347185134887695,0.0000465105702842581
654,-0.00385856628417969,0.0000475882528300272
655,-0.000576972961425781,0.0000169721544029373
656,-0.00366878509521484,0.0000239755932821259
657,-0.00787353515625,0.000034066335867866
658,-0.00391626358032227,0.0000338579566448703
659,-0.00370502471923828,0.0000459498852029671
660,-0.00368213653564453,0.0000346610106261081
661,-0.00368118286132812,0.000032801405948486
662,-0.00365209579467773,0.0000466143382380706
663,-0.00362968444824219,0.0000424693028015935
664,-0.00362014770507812,0.0000425154545589581
665,-0.00368261337280273,0.0000470633685506068
666,-0.00371408462524414,0.0000391471400294758
667,-0.00359869003295898,0.0000460734265486952
668,-0.00368165969848633,0.0000387838954966453
669,-0.00365161895751953,0.0000289989920277722
670,-0.00371885299682617,0.0000245223679143856
671,-0.00362873077392578,0.0000299374378526012
672,-0.00359916687011719,0.0000277084037223999
673,-0.00374555587768555,0.0000345007418897814
674,-0.00364446640014648,0.0000435282073771532
675,-0.00367259979248047,0.0000493209617376772
676,-0.00362539291381836,0.000041405283634362
677,-0.0036168098449707,0.0000357500689463168
678,-0.00366973876953125,0.0000334984467062461
679,-0.00361776351928711,0.0000345196840886344
680,-0.00367927551269531,0.0000393065404816649
681,-0.0036616325378418,0.0000330637661425776
682,-0.00373649597167969,0.0000435086144907262
683,-0.00363016128540039,0.0000536690760169659
684,-0.00355339050292969,0.0000421252637973545
685,-0.00356435775756836,0.0000321820927169742
686,-0.0036158561706543,0.0000345188607309143
687,-0.00360727310180664,0.0000355171669951173
688,-0.00363063812255859,0.0000364827171771213
689,-0.00360345840454102,0.0000248596389727346
690,-0.00363731384277344,0.0000284378501320461
691,-0.00348615646362305,0.0000382191749579473
692,-0.00363016128540039,0.0000321095925121658
693,-0.00355052947998047,0.0000316055279918083
694,-0.00362777709960937,0.0000296608427680119
695,-0.00358200073242187,0.0000320528930440022
696,-0.00365447998046875,0.0000270786203783537
697,-0.00347995758056641,0.0000245478529273626
698,-0.00361013412475586,0.0000321493994523393
699,-0.00361728668212891,0.0000315073557599674
700,-0.00364589691162109,0.0000336144831897672
701,-0.00358200073242187,0.0000236533581154453
702,-0.00357294082641602,0.0000237947236496472
703,-0.00359630584716797,0.0000249423895752214
704,-0.00365209579467773,0.0000296948402096776
705,-0.00364923477172852,0.0000297808569852474
706,-0.00348663330078125,0.0000370386159404849
707,-0.00348615646362305,0.0000444495618961983
708,-0.00364494323730469,0.0000360288261410972
709,-0.00370168685913086,0.0000419515088089746
710,-0.00362348556518555,0.0000393881635896881
711,-0.00360393524169922,0.0000351358132226796
712,-0.00369977951049805,0.0000258065397791573
713,-0.00358724594116211,0.0000237169570421065
714,-0.0035700798034668,0.0000384038975334864
715,-0.00364351272583008,0.0000300137648487599
716,-0.00367498397827148,0.0000305119896778678
717,-0.00369930267333984,0.0000411463775726407
718,-0.00368213653564453,0.0000414862029627628
719,-0.00371932983398437,0.0000269550102926867
720,-0.00373554229736328,0.0000234609212272068
721,-0.00378799438476562,0.0000255397382803304
722,-0.00377082824707031,0.0000350434761556113
723,-0.0037989616394043,0.000051404505339158
724,-0.00380468368530273,0.0000391950282323179
725,-0.00380229949951172,0.0000474183327043257
726,-0.00381278991699219,0.0000363085743347196
727,-0.00387334823608398,0.0000354498844028404
728,-0.00382757186889648,0.0000418178303817151
729,-0.00382471084594727,0.000048993712776786
730,-0.00396823883056641,0.0000454648664735136
731,-0.00401926040649414,0.0000243257063687987
732,-0.00400114059448242,0.0000300350637975188
733,-0.00397491455078125,0.0000396320242980578
734,-0.00395011901855469,0.0000474937948287414
735,-0.00413370132446289,0.0000400316083179767
736,-0.00407552719116211,0.0000449328894140826
737,-0.00409173965454102,0.0000361650414705739
738,-0.00417232513427734,0.0000373541885573259
739,-0.00402688980102539,0.000033896548872024
740,-0.00408363342285156,0.0000355619513358766
741,-0.00409555435180664,0.0000319187185870965
742,-0.00406312942504883,0.0000316531530947645
743,-0.00407075881958008,0.0000352521038114746
744,-0.00410079956054688,0.0000243502300222624
745,-0.00412559509277344,0.0000318009632708293
746,-0.00415706634521484,0.0000493474625892458
747,-0.00408315658569336,0.000038710543886758
748,-0.00407743453979492,0.0000410176975395035
749,-0.00395774841308594,0.0000559090297103771
750,-0.00391101837158203,0.0000642952626033474
751,-0.00400352478027344,0.0000528515430505118
752,-0.00402069091796875,0.0000464433027689916
753,-0.00400018692016602,0.0000452342315654156
754,-0.00391530990600586,0.0000315605327695516
755,-0.00397968292236328,0.0000370777303127988
756,-0.00396394729614258,0.0000556920488644576
757,-0.00386238098144531,0.0000411629521463532
758,-0.00394487380981445,0.0000440319807697137
759,-0.00392341613769531,0.0000362427609742353
760,-0.00381231307983398,0.0000388256439066987
761,-0.00391960144042969,0.0000521826325237444
762,-0.00388908386230469,0.0000381037347847
763,-0.00377511978149414,0.000029951200556102
764,-0.00370454788208008,0.0000343463458262789
765,-0.00377225875854492,0.0000497261371960979
766,-0.00391864776611328,0.0000505188659810626
767,-0.00390529632568359,0.0000548487110130166
768,-0.00369071960449219,0.0000410917723791552
769,-0.00376224517822266,0.0000446638885622512
770,-0.00373315811157227,0.0000498745226478305
771,-0.00373601913452148,0.0000473259378137777
772,-0.0038151741027832,0.0000533621047599635
773,-0.00378322601318359,0.0000307938616194202
774,-0.00378704071044922,0.000039998935826548
775,-0.00378322601318359,0.0000420185267449574
776,-0.0036768913269043,0.0000345509571429769
777,-0.00376701354980469,0.000034350483092857
778,-0.00371456146240234,0.0000320387024985169
779,-0.00367116928100586,0.0000392971393385266
780,-0.00376796722412109,0.0000404651890358174
781,-0.00369787216186523,0.0000558805545042247
782,-0.00365829467773437,0.0000407828203520458
783,-0.00365400314331055,0.0000457676740180313
784,-0.00370645523071289,0.0000369079353199336
785,-0.00365686416625977,0.0000318973408639279
786,-0.0036463737487793,0.0000444111804350247
787,-0.00360345840454102,0.0000445262255645733
788,-0.00371456146240234,0.000055052496826398
789,-0.00373506546020508,0.0000485964677727829
790,-0.00369548797607422,0.0000372620094613011
791,-0.00369739532470703,0.0000526705440837939
792,-0.00369071960449219,0.0000429378556443082
793,-0.00361967086791992,0.0000391260797083022
794,-0.00356817245483398,0.0000478313069266333
795,-0.00365591049194336,0.000030608711662921
796,-0.00379467010498047,0.0000383305602267343
797,-0.00364542007446289,0.0000373990529892007
798,-0.00370216369628906,0.0000412119462309423
799,-0.00373601913452148,0.0000468830600591485
800,-0.00368022918701172,0.00003515683859094
801,-0.00361919403076172,0.00003861645051522
802,-0.0037226676940918,0.000044359953495506
803,-0.00364208221435547,0.000040455354600354
804,-0.00374937057495117,0.000042478670981064
805,-0.00370693206787109,0.0000523425171562586
806,-0.00372028350830078,0.0000626038340967627
807,-0.00380992889404297,0.0000457776089340908
808,-0.00379323959350586,0.0000385427802384358
809,-0.00376987457275391,0.0000390213359718048
810,-0.00389385223388672,0.000031797388120366
811,-0.00375938415527344,0.0000345139201721145
812,-0.00386476516723633,0.0000399420504449564
813,-0.00380086898803711,0.0000403061398677905
814,-0.00380563735961914,0.0000402009358302967
815,-0.0038304328918457,0.0000427042218509182
816,-0.00379419326782227,0.0000471598940451309
817,-0.00384235382080078,0.000039164560696375
818,-0.00396633148193359,0.0000323994971581743
819,-0.00388193130493164,0.0000378372613626873
820,-0.00387382507324219,0.0000507176339184833
821,-0.00396871566772461,0.0000453810209815411
822,-0.00394201278686523,0.0000518054550997691
823,-0.00402164459228516,0.0000408113834124811
824,-0.00399398803710937,0.0000362090245108113
825,-0.00400972366333008,0.0000408705359231281
826,-0.00403881072998047,0.0000339292339844136
827,-0.00408458709716797,0.000039037356675874
828,-0.00404167175292969,0.0000447846311929076
829,-0.00410747528076172,0.0000358635753733994
830,-0.00422143936157227,0.0000346511693395309
831,-0.00424575805664063,0.000025609751400902
832,-0.00425148010253906,0.0000296383159670973
833,-0.00429201126098633,0.000038609089813227
834,-0.00425148010253906,0.0000396678650913417
835,-0.00434064865112305,0.0000344207405399103
836,-0.00426626205444336,0.0000550256444672827
837,-0.00431585311889648,0.0000476491325853724
838,-0.00436592102050781,0.0000464420788214147
839,-0.0043182373046875,0.0000573326045025436
840,-0.00429344177246094,0.0000455897221665869
841,-0.00433254241943359,0.0000385641591073281
842,-0.00429344177246094,0.0000359000116410998
843,-0.00432395935058594,0.0000325657437453238
844,-0.00429534912109375,0.0000400209571754723
845,-0.00423765182495117,0.0000567866811142687
846,-0.00421762466430664,0.0000724698361760793
847,-0.00418996810913086,0.0000399939615857729
848,-0.00420904159545898,0.0000482372108195355
849,-0.00420427322387695,0.0000486034854821901
850,-0.00416278839111328,0.0000471418105696223
851,-0.00418663024902344,0.000065089582073737
852,-0.00407028198242188,0.0000517670371836551
853,-0.00407314300537109,0.0000462544332911246
854,-0.00408411026000977,0.0000492448366373551
855,-0.0041956901550293,0.0000434157548526384
856,-0.00409126281738281,0.0000428888451037767
857,-0.00405120849609375,0.0000514851659055033
858,-0.00418281555175781,0.0000468709339797332
859,-0.00413179397583008,0.0000420239376685192
860,-0.00410270690917969,0.0000615193857881611
861,-0.00409889221191406,0.0000605592577403456
862,-0.00399494171142578,0.0000441660362906554
863,-0.00400638580322266,0.0000646707923726222
864,-0.00401973724365234,0.0000564080421052937
865,-0.00401830673217773,0.0000392095282617556
866,-0.00396203994750977,0.000039204453861486
867,-0.00395727157592773,0.0000394552134568055
868,-0.00393342971801758,0.0000519446186479873
869,-0.00392389297485352,0.0000385258161480657
870,-0.00395584106445312,0.0000291734140767488
871,-0.00391387939453125,0.000042417070782673
872,-0.00393009185791016,0.000055158745010251
873,-0.00380802154541016,0.0000548590737086092
874,-0.00383090972900391,0.0000503283493116713
875,-0.00388526916503906,0.0000600824280316173
876,-0.00390338897705078,0.000079570392523804
877,-0.00394725799560547,0.0000657015161795355
878,-0.00380754470825195,0.0000530683553922662
879,-0.0039067268371582,0.0000395228687002222
880,-0.00386428833007812,0.000049505021571199
881,-0.00383949279785156,0.0000606455512559001
882,-0.003936767578125,0.0000464445266843139
883,-0.00388860702514648,0.0000580401127542771
884,-0.00393438339233398,0.0000482372108195355
885,-0.00386381149291992,0.000065378878276224
886,-0.00388336181640625,0.0000505436141410805
887,-0.00395298004150391,0.000051877822905205
888,-0.00390148162841797,0.0000626909401750865
889,-0.00385951995849609,0.0000541698344877722
890,-0.00380420684814453,0.0000372276697530931
891,-0.00387763977050781,0.0000496735254024712
892,-0.00384426116943359,0.0000578998918024465
893,-0.00394868850708008,0.0000397901966007971
894,-0.00390100479125977,0.0000496678033712117
895,-0.00379276275634766,0.0000479286578468767
896,-0.00383806228637695,0.0000420415183605203
897,-0.00391960144042969,0.00005563486176678
898,-0.00383567810058594,0.0000608336579659159
899,-0.0039362907409668,0.0000761985182015922
900,-0.0039215087890625,0.0000601041841758298
901,-0.00396013259887695,0.0000568906897751881
902,-0.00388383865356445,0.0000592017864605427
903,-0.00399208068847656,0.0000435203712810693
904,-0.00401210784912109,0.000042598935476282
905,-0.00402355194091797,0.0000638961791992188
906,-0.00397729873657227,0.0000538541077088475
907,-0.00398588180541992,0.000043902695210343
908,-0.00406551361083984,0.0000469266880001956
909,-0.00395870208740234,0.000047252613608694
910,-0.00409460067749023,0.0000523783425463047
911,-0.0041651725769043,0.0000526219565047272
912,-0.00414896011352539,0.0000510650075572374
913,-0.00418996810913086,0.0000567245852169489
914,-0.00432968139648438,0.0000477718492464309
915,-0.00435924530029297,0.0000580871040484878
916,-0.00432395935058594,0.0000381149216951271
917,-0.00446891784667969,0.0000439130520623886
918,-0.00460195541381836,0.0000546389637398957
919,-0.00452184677124023,0.000084627513428618
920,-0.00461912155151367,0.0000758905474942504
921,-0.00469017028808594,0.0000656582430956211
922,-0.00471019744873047,0.0000510549881527869
923,-0.00490570068359375,0.0000420638217341265
924,-0.00500869750976563,0.000050810573681274
925,-0.0051417350769043,0.0000534685225921334
926,-0.00511932373046875,0.0000707906477351976
927,-0.00521469116210938,0.0000764784965013153
928,-0.00541019439697266,0.0000658173477477212
929,-0.00549077987670898,0.0000631030520500976
930,-0.00574016571044922,0.0000648340738957458
931,-0.00574731826782227,0.0000943703985355605
932,-0.00596714019775391,0.0000696280224320682
933,-0.00599479675292969,0.0000589439008516599
934,-0.00624608993530273,0.0000827734919049022
935,-0.00642776489257813,0.0000630850334174667
936,-0.00666284561157227,0.0000514917899217295
937,-0.00676155090332031,0.0000543981130100663
938,-0.0069727897644043,0.0000649304450167131
939,-0.0071258544921875,0.000059064323430693
940,-0.00730705261230469,0.0000678199239201958
941,-0.00733804702758789,0.0000722498777910781
942,-0.00761651992797852,0.0000540258814982668
943,-0.00792264938354492,0.0000773696759292294
944,-0.00793695449829102,0.0000851431435534099
945,-0.00815296173095703,0.000072723529141603
946,-0.0083613395690918,0.0000740204259455156
947,-0.00862026214599609,0.0000704493618677619
948,-0.00895023345947266,0.0000737496148483336
949,-0.00914430618286133,0.0000583828636550957
950,-0.00949621200561523,0.0000653736613907389
951,-0.00978279113769531,0.0000979201097499441
952,-0.0100564956665039,0.0000564140880913529
953,-0.0104141235351562,0.0000705477312305428
954,-0.0108165740966797,0.0000799609139108833
955,-0.0112619400024414,0.0000686496480028257
956,-0.0116691589355469,0.0000916172833185003
957,-0.0119714736938477,0.000112575991764918
958,-0.0123834609985352,0.000106384924067569
959,-0.0124626159667969,0.000102968123639881
960,-0.0128426551818848,0.0000860965109230613
961,-0.0128974914550781,0.0000878364591450484
962,-0.0130109786987305,0.000102105522702854
963,-0.0128464698791504,0.000101287216547789
964,-0.0128741264343262,0.0000871999452647338
965,-0.0127658843994141,0.000115309833893599
966,-0.0124669075012207,0.000139425749973578
967,-0.0124387741088867,0.00014259264901402
968,-0.0122189521789551,0.000156867105064027
969,-0.0122113227844238,0.000128608205984076
970,-0.0120506286621094,0.000123212359615396
971,-0.0115242004394531,0.000146005637955716
972,-0.0115466117858887,0.000133401959616757
973,-0.0113544464111328,0.000156274603605342
974,-0.0111374855041504,0.000124190221646736
975,-0.0109295845031738,0.0000893557719840444
976,-0.0106186866760254,0.0000741447282338162
977,-0.0106711387634277,0.0000863088428544327
978,-0.0101380348205566,0.000105310865505033
979,-0.0102882385253906,0.000129489166812849
980,-0.00979423522949219,0.000133234821233805
981,-0.00975894927978516,0.000127799475172781
982,-0.00916337966918945,0.000159964475538731
983,-0.00898408889770508,0.000184495931414635
984,-0.00886011123657227,0.000141375583345081
985,-0.00837087631225586,0.000113035553335475
986,-0.00819730758666992,0.000129457556247481
987,-0.00803804397583008,0.000124687218399106
988,-0.00766134262084961,0.000136422102616766
989,-0.00730133056640625,0.000149261455890761
990,-0.00751876831054688,0.000193038381989283
991,-0.0069575309753418,0.000157110426789941
992,-0.0066990852355957,0.000178012961323529
993,-0.00661325454711914,0.000207664635360153
994,-0.00650596618652344,0.000239571644086028
995,-0.00589323043823242,0.000247852597598957
996,-0.00564241409301758,0.000207454306506023
997,-0.00579357147216797,0.00024249220698494
998,-0.00538730621337891,0.000210716708736052
999,-0.00523757934570313,0.000254857751739702
1000,-0.00478458404541016,0.000282010380485953
1001,-0.00469303131103516,0.000274691314820635
1002,-0.00468730926513672,0.000158019546376946
1003,-0.00455999374389648,0.000190668094392501
1004,-0.00417518615722656,0.000286451762071651
1005,-0.00410795211791992,0.000299921096263917
1006,-0.00411605834960938,0.000225934281665504
1007,-0.00417327880859375,0.00022103035402504
1008,-0.00365924835205078,0.000269084916332273
1009,-0.0034642219543457,0.00023243060315998
1010,-0.00348186492919922,0.000252008325329542
1011,-0.00334072113037109,0.000252210347610875
1012,-0.0033726692199707,0.000313386144997267
1013,-0.00304174423217773,0.000204135318467511
1014,-0.00365114212036133,0.000166032479987313
1015,-0.00347280502319336,0.000274061508518098
1016,-0.00307083129882812,0.00025918194125546
1017,-0.00352573394775391,0.000257845036212841
1018,-0.00294923782348633,0.000308690101710685
1019,-0.0031132698059082,0.000296860907872676
1020,-0.00299072265625,0.000255221493101536
1021,-0.00325441360473633,0.000189380606371702
1022,-0.00266790390014648,0.000236822507966471
1023,-0.00290822982788086,0.000436495390680139
1024,-0.00329256057739258,0.000366776744530835
1025,-0.00275468826293945,0.000374491766282499
1026,-0.00354194641113281,0.000254171649985467
1027,-0.00300693511962891,0.000331412459278323
1028,-0.00377321243286133,0.00023740553209407
1029,-0.00334024429321289,0.000311925861697404
1030,-0.00306940078735352,0.000289628236423731
1031,-0.00296211242675781,0.000290105156319669
1032,-0.0033111572265625,0.000412560876075995
1033,-0.00328922271728516,0.000298510724934473
1034,-0.00405311584472656,0.000436170223350992
1035,-0.00369071960449219,0.000329275997284579
1036,-0.00352287292480469,0.000327392378642728
1037,-0.00307750701904297,0.000507971023611978
1038,-0.00306224822998047,0.000437186608403076
1039,-0.00336217880249023,0.000368745299487139
1040,-0.00381374359130859,0.000408333007099141
1041,-0.00382852554321289,0.000357473976084838
1042,-0.00325489044189453,0.000398220411582741
1043,-0.00440549850463867,0.000578879524494373
1044,-0.00444507598876953,0.000581500519485203
1045,-0.00461435317993164,0.00042454684313813
1046,-0.00472879409790039,0.000464070112614694
1047,-0.00486278533935547,0.00066455705192685
1048,-0.00465631484985352,0.000590600887252935
1049,-0.00472497940063477,0.000560552857031454
1050,-0.00485467910766602,0.000481619693056843
1051,-0.00546073913574219,0.000591966781681457
1052,-0.00455522537231445,0.000559110224316974
1053,-0.00525617599487305,0.000621011157212315
1054,-0.00517177581787109,0.000484196144392144
1055,-0.00539016723632813,0.000780159218584048
1056,-0.0046534538269043,0.000784085017436274
1057,-0.0053858757019043,0.000783806581441615
1058,-0.00628137588500977,0.000807851653561343
1059,-0.00615167617797852,0.000836454472269638
1060,-0.00585079193115234,0.000935184530039311
1061,-0.00558900833129883,0.000711418028758478
1062,-0.00557947158813477,0.000704015790077307
1063,-0.00477933883666992,0.000916559908644066
1064,-0.00560903549194336,0.000639061421839964
1065,-0.00541925430297852,0.000946706110107627
1066,-0.00471258163452148,0.00154788363209905
1067,-0.00589561462402344,0.0010411817693623
1068,-0.00553750991821289,0.00100927402918419
1069,-0.00359010696411133,0.00123683286521132
1070,-0.00539016723632813,0.00108348147436992
1071,-0.00628376007080078,0.000998576706672357
1072,-0.00587368011474609,0.000659777229177672
1073,-0.00553417205810547,0.000913888736453671
1074,-0.00636529922485352,0.000679669440922943
1075,-0.00704097747802734,0.000979627329896598
1076,-0.00568723678588867,0.00121951044945875
1077,-0.00486850738525391,0.00110008885007162
1078,-0.00629186630249023,0.000987321476175738
1079,-0.00647735595703125,0.00109252290350892
1080,-0.00718307495117188,0.00134062595306265
1081,-0.00684547424316406,0.00133451174341347
1082,-0.00644350051879883,0.00124141291693979
1083,-0.00589418411254883,0.00102988348717959
1084,-0.00717639923095703,0.000989147396647473
1085,-0.00659608840942383,0.00130883591816673
1086,-0.00715970993041992,0.00131655145234861
1087,-0.00461196899414063,0.00171849465640882
1088,-0.00638389587402344,0.00168966545578814
1089,-0.00747060775756836,0.00176336418416543
1090,-0.00663948059082031,0.00194709562441498
1091,-0.00648021697998047,0.00129169051727712
1092,-0.00988435745239258,0.00179367049203837
1093,-0.0059819221496582,0.00164257161142552
1094,-0.00875043869018555,0.00187720318338248
1095,-0.00423669815063477,0.00202189031385846
1096,-0.0101017951965332,0.00265774642642429
1097,-0.00824928283691406,0.00260317803531489
1098,-0.00464582443237305,0.00178260276690799
1099,-0.00960254669189453,0.0017148665967562
1100,-0.00754165649414063,0.00177930173862768
