Wavelength (nm),Absorbance (AU),Std.Dev.
190,0.0290212631225586,0.0000660931392250011
191,0.0316648483276367,0.0000572423098486811
192,0.0314145088195801,0.0000598045810513044
193,0.0300636291503906,0.0000385847895340045
194,0.0281262397766113,0.0000350929148065447
195,0.0256905555725098,0.0000386282247210017
196,0.023165225982666,0.0000294979767816679
197,0.0208244323730469,0.0000324827268081717
198,0.0186347961425781,0.0000221427845896558
199,0.016578197479248,0.000030454182342216
200,0.0147490501403809,0.0000299521494749659
201,0.0131182670593262,0.0000249395406769042
202,0.011716365814209,0.0000288447069991298
203,0.0105361938476562,0.0000218735240999575
204,0.0095219612121582,0.0000243058357646961
205,0.0086665153503418,0.0000267772830121025
206,0.00785017013549805,0.0000348156439519345
207,0.00710964202880859,0.0000315614333026369
208,0.00664520263671875,0.0000256922984865335
209,0.00620460510253906,0.0000379280424107344
210,0.00563478469848633,0.0000247961053415235
211,0.00527524948120117,0.0000296685075637386
212,0.00494241714477539,0.0000245148331812781
213,0.00460577011108398,0.0000316127212841898
214,0.00435829162597656,0.0000320945414856904
215,0.00420427322387695,0.00002760615360145
216,0.00394105911254883,0.0000265239999534533
217,0.00374031066894531,0.0000260629786361163
218,0.0035252571105957,0.0000297674929228463
219,0.00335788726806641,0.0000304490489724919
220,0.00320243835449219,0.0000290210357422192
221,0.00307512283325195,0.0000256585361477594
222,0.00290298461914062,0.0000207910023502239
223,0.00281000137329102,0.0000191322553755216
224,0.00265216827392578,0.0000196771173592677
225,0.00254058837890625,0.0000248836364233763
226,0.00246906280517578,0.0000272715839726044
227,0.00234127044677734,0.0000253111388971484
228,0.00224685668945312,0.0000229024594211649
229,0.00215387344360352,0.0000292672765868899
230,0.00206184387207031,0.0000275391520283559
231,0.00202035903930664,0.0000217765061900731
232,0.00200557708740234,0.0000236905782141802
233,0.00190401077270508,0.0000359561777525117
234,0.00185537338256836,0.0000330233400921924
235,0.00178146362304687,0.0000454148280845096
236,0.00172042846679687,0.0000446817027118405
237,0.00161266326904297,0.0000296905328293955
238,0.00157594680786133,0.0000246016321068431
239,0.00150918960571289,0.0000290308275758679
240,0.00147438049316406,0.0000250015730605671
241,0.00144338607788086,0.0000274730215963554
242,0.00143051147460937,0.0000255263806757136
243,0.00146484375,0.0000289253916518382
244,0.00137662887573242,0.0000366335403132814
245,0.00134515762329102,0.0000258026848100583
246,0.00133657455444336,0.0000306170674695273
247,0.00130033493041992,0.0000269117446425451
248,0.00130748748779297,0.0000330345267150869
249,0.00123834609985352,0.0000328542186141732
250,0.00123929977416992,0.0000267225644248246
251,0.0011897087097168,0.0000371527756728485
252,0.00117158889770508,0.0000328620034617129
253,0.00112295150756836,0.0000290048719897185
254,0.00115013122558594,0.0000256673961397872
255,0.00116920471191406,0.0000285754389631289
256,0.0010685920715332,0.0000368401067957281
257,0.00112342834472656,0.0000305482963099071
258,0.00105714797973633,0.0000400628353334331
259,0.000970840454101563,0.0000269370793100925
260,0.000971317291259766,0.0000386951223827053
261,0.00101995468139648,0.0000471659203295831
262,0.000992774963378906,0.0000389484315363069
263,0.000857830047607422,0.0000355035605712782
264,0.000956058502197266,0.0000287623138219228
265,0.000910758972167969,0.0000405206386153333
266,0.000862598419189453,0.0000336499762809321
267,0.000874042510986328,0.0000415963559305877
268,0.000769138336181641,0.0000382503955281294
269,0.000791549682617188,0.000037335161942929
270,0.000867843627929688,0.0000409705523389624
271,0.000773906707763672,0.0000334483507817414
272,0.000750541687011719,0.0000448239610370851
273,0.000730991363525391,0.0000354218122703316
274,0.000777244567871094,0.0000344727213127141
275,0.000736236572265625,0.0000301564161770698
276,0.000691890716552734,0.0000365628708496541
277,0.000703811645507813,0.0000358928857165505
278,0.000655174255371094,0.0000416796320017962
279,0.000636100769042969,0.000037843270138549
280,0.000676155090332031,0.0000401981077658662
281,0.000567436218261719,0.0000469133615450094
282,0.000568866729736328,0.0000343008029582545
283,0.000596046447753906,0.0000404209152335298
284,0.000565052032470703,0.0000258362587787487
285,0.000557899475097656,0.000037960999875403
286,0.000507354736328125,0.0000429887937791203
287,0.000512123107910156,0.0000351713872522666
288,0.00046539306640625,0.0000252577451462883
289,0.000429630279541016,0.0000213979844593786
290,0.000418663024902344,0.000030935671965234
291,0.000446796417236328,0.0000360895172641266
292,0.000347137451171875,0.0000299630598819213
293,0.000360012054443359,0.0000199375532123084
294,0.000290870666503906,0.0000217980306050224
295,0.000300407409667969,0.0000269961010743111
296,0.000273227691650391,0.0000274274644326437
297,0.000162601470947266,0.0000326171952718023
298,0.000241756439208984,0.0000301521747351624
299,0.000134468078613281,0.0000385796329615951
300,0.000181674957275391,0.0000435112273853321
301,0.000120162963867187,0.0000381864403163781
302,0.0000934600830078125,0.000041057174602221
303,0.000110626220703125,0.0000393881635896881
304,0.0000500679016113281,0.0000298913579377654
305,-0.0000295639038085937,0.0000266175951708848
306,0.0000200271606445312,0.0000361831124034698
307,0.00000667572021484375,0.000041650981983778
308,-0.0000376701354980469,0.0000410647886141489
309,-0.000111103057861328,0.0000467993261565477
310,-0.0000748634338378906,0.0000664875852920477
311,-0.000128746032714844,0.0000421589850558543
312,-0.00012969970703125,0.0000339317469197456
313,-0.000105857849121094,0.0000362207966133746
314,-0.000196933746337891,0.0000362286425566299
315,-0.000136852264404297,0.0000375530075828526
316,-0.000250816345214844,0.0000497992437498737
317,-0.000237464904785156,0.000043354174978328
318,-0.000226974487304687,0.0000410537132208885
319,-0.000370502471923828,0.0000459845102357528
320,-0.00048065185546875,0.0000493186566428362
321,-0.000399589538574219,0.0000548808290002873
322,-0.000458240509033203,0.0000435438753388018
323,-0.000469207763671875,0.0000357691441289705
324,-0.00051116943359375,0.0000469036671993885
325,-0.000558376312255859,0.0000472465983819357
326,-0.000584602355957031,0.0000403484264398693
327,-0.000518798828125,0.000036730392092141
328,-0.000579357147216797,0.0000390890150679001
329,-0.000520229339599609,0.0000487890869787004
330,-0.000666618347167969,0.0000607766323878925
331,-0.000645637512207031,0.0000580606761252516
332,-0.000632762908935547,0.000052319706408399
333,-0.000622272491455078,0.000048248993523446
334,-0.000620365142822266,0.0000358072640091977
335,-0.000750541687011719,0.00003490206965478
336,-0.000739574432373047,0.0000363781752497081
337,-0.000742912292480469,0.0000501087566990003
338,-0.000714302062988281,0.0000506211548884972
339,-0.000729084014892578,0.0000535322717475055
340,-0.000789165496826172,0.0000495796006964233
341,-0.000834941864013672,0.0000507747616342321
342,-0.000831127166748047,0.0000468005407612418
343,-0.0008087158203125,0.0000429947436479563
344,-0.000797748565673828,0.000035521167892587
345,-0.000844001770019531,0.000031738339994908
346,-0.000899791717529297,0.00003714053372658
347,-0.000833988189697266,0.0000281414731591787
348,-0.000931739807128906,0.0000407312168105931
349,-0.0008392333984375,0.0000574296861313189
350,-0.000797271728515625,0.0000445594055257476
351,-0.000847816467285156,0.0000341895900158755
352,-0.000877857208251953,0.0000509479919021343
353,-0.000903129577636719,0.0000481121367520694
354,-0.000951766967773438,0.0000572343650450553
355,-0.000944614410400391,0.0000513270405393006
356,-0.000906944274902344,0.000035224680933881
357,-0.000927448272705078,0.0000563596508678146
358,-0.000813484191894531,0.0000608915636640478
359,-0.000833511352539063,0.0000685402619511526
360,-0.000776290893554688,0.0000547854561237596
361,-0.000914096832275391,0.0000425441904772655
362,-0.00102949142456055,0.0000468612308569753
363,-0.00102663040161133,0.0000494061746416459
364,-0.00100374221801758,0.0000607831790241106
365,-0.0009613037109375,0.0000559740614996805
366,-0.000890731811523438,0.0000439363460532739
367,-0.0008087158203125,0.0000566393431002564
368,-0.000930309295654297,0.0000601306592920639
369,-0.000986099243164063,0.0000807672628511473
370,-0.00104427337646484,0.0000773784918142414
371,-0.00110626220703125,0.0000595445329818283
372,-0.000956535339355469,0.0000494395288308328
373,-0.00111484527587891,0.0000664790352636837
374,-0.00115537643432617,0.000081739681017847
375,-0.00104713439941406,0.0000995254077962455
376,-0.00108432769775391,0.0000777317698964101
377,-0.00102758407592773,0.0000643518201051655
378,-0.00113821029663086,0.0000707006568635965
379,-0.00109100341796875,0.0000841816805637617
380,-0.000998020172119141,0.0000602656901121398
381,-0.0010833740234375,0.0000658035278320313
382,-0.00104808807373047,0.0000687472851664924
383,-0.0011754035949707,0.0000603702960377003
384,-0.000992298126220703,0.0000585908504106394
385,-0.00104618072509766,0.0000507602057730532
386,-0.00116586685180664,0.0000512960218639497
387,-0.00124835968017578,0.0000890626635662363
388,-0.00129508972167969,0.000079180816658277
389,-0.00114297866821289,0.0000493808564353732
390,-0.00121879577636719,0.0000719234210115799
391,-0.00113916397094727,0.0000728469231414038
392,-0.00116777420043945,0.0000978248600921808
393,-0.00115966796875,0.0000607251699737295
394,-0.00126791000366211,0.0000826250240858243
395,-0.00124549865722656,0.0000724917953070827
396,-0.00123071670532227,0.000062192070177514
397,-0.00119304656982422,0.0000403505396051915
398,-0.00114774703979492,0.0000489658596120693
399,-0.00114727020263672,0.0000517011114823525
400,-0.00123357772827148,0.0000458198082951586
401,-0.00118207931518555,0.0000708243648326841
402,-0.00128364562988281,0.0000596437326057574
403,-0.00121831893920898,0.000047487810152143
404,-0.00128173828125,0.0000489635377998102
405,-0.00135707855224609,0.000056289005740921
406,-0.00124263763427734,0.0000726281067948734
407,-0.00134658813476562,0.0000786607896593765
408,-0.00136613845825195,0.0000937830928978945
409,-0.00126314163208008,0.0000791061204683218
410,-0.00125741958618164,0.0000610705362535432
411,-0.00141096115112305,0.0000716779992069761
412,-0.0013575553894043,0.0000836275045023043
413,-0.00132846832275391,0.0000714858262565849
414,-0.00130462646484375,0.0000649059277617399
415,-0.0012202262878418,0.0000481487486319135
416,-0.00124263763427734,0.0000410481744036452
417,-0.00136184692382812,0.0000485145194900518
418,-0.00143766403198242,0.0000428411053566288
419,-0.00139856338500977,0.0000386730809950115
420,-0.00127935409545898,0.0000456445504752356
421,-0.00130081176757812,0.0000465313423877732
422,-0.00129127502441406,0.0000438806787833895
423,-0.00146579742431641,0.0000430700375098932
424,-0.00127458572387695,0.0000540963297257043
425,-0.00134992599487305,0.0000547698904519861
426,-0.00132179260253906,0.0000537770004552362
427,-0.00131750106811523,0.0000733818148829945
428,-0.00135469436645508,0.0000795075023169055
429,-0.0012965202331543,0.0000515712117528713
430,-0.00129318237304687,0.0000582756657312477
431,-0.00140047073364258,0.0000741232587883875
432,-0.00128793716430664,0.0000690130160151647
433,-0.00136423110961914,0.0000753085757837747
434,-0.00140857696533203,0.0000637037311255063
435,-0.00138521194458008,0.0000531026206777685
436,-0.00128746032714844,0.0000736107469021179
437,-0.00139665603637695,0.0000543719829334273
438,-0.0013880729675293,0.0000678065121587713
439,-0.00123977661132812,0.0000531154644609235
440,-0.00139093399047852,0.0000475093514597386
441,-0.00135278701782227,0.0000429596936692274
442,-0.00131893157958984,0.0000478883168478538
443,-0.00134849548339844,0.0000627416962071371
444,-0.00148344039916992,0.000076025251264083
445,-0.00130033493041992,0.0000634444337698079
446,-0.00136184692382812,0.0000478800071288256
447,-0.00141239166259766,0.0000448125462511853
448,-0.00135135650634766,0.0000367930159156618
449,-0.00139904022216797,0.0000583575437350539
450,-0.00139379501342773,0.0000562445548159259
451,-0.00143957138061523,0.0000486397275176047
452,-0.00140666961669922,0.0000424418555235294
453,-0.00144100189208984,0.0000488519610399845
454,-0.00145864486694336,0.0000642811154525951
455,-0.0014195442199707,0.000057512768525871
456,-0.00144767761230469,0.0000611003140507676
457,-0.00139284133911133,0.0000602968081272739
458,-0.00135993957519531,0.0000784393501853111
459,-0.00143957138061523,0.0000594843604424522
460,-0.0013270378112793,0.0000589574004119789
461,-0.00136280059814453,0.0000419345681494153
462,-0.00130558013916016,0.0000435647571888638
463,-0.00132465362548828,0.0000494786051086455
464,-0.00140285491943359,0.00004839603527915
465,-0.00141191482543945,0.0000422068229517321
466,-0.00147151947021484,0.0000555377132606769
467,-0.00145053863525391,0.0000774416429544899
468,-0.00145483016967773,0.0000610025512510883
469,-0.00133562088012695,0.0000499633423891081
470,-0.00131845474243164,0.0000580743809941136
471,-0.00152111053466797,0.0000393744511835997
472,-0.00137805938720703,0.0000695986262913473
473,-0.00141286849975586,0.0000907094182923674
474,-0.00141716003417969,0.0000660053558066902
475,-0.00135707855224609,0.0000425689012057358
476,-0.00137710571289062,0.0000390970123741698
477,-0.00141143798828125,0.0000529933228378761
478,-0.00140190124511719,0.0000715382882579411
479,-0.00133609771728516,0.0000959071147849862
480,-0.00150823593139648,0.0000604220607043012
481,-0.00155973434448242,0.0000549812060163996
482,-0.00132942199707031,0.0000552452427406605
483,-0.00145053863525391,0.000050510989023662
484,-0.00142002105712891,0.0000502243323038467
485,-0.00117921829223633,0.0000444533982196764
486,-0.00185585021972656,0.0000425027511038577
487,-0.00134515762329102,0.0000540795146094024
488,-0.00170040130615234,0.0000464065702994799
489,-0.00136327743530273,0.0000389849007960957
490,-0.00139045715332031,0.0000460228147073973
491,-0.00146722793579102,0.0000469569613328071
492,-0.00151968002319336,0.0000650825952143272
493,-0.00142908096313477,0.0000633458019463181
494,-0.00136137008666992,0.0000588724946101226
495,-0.00147199630737305,0.0000736231013262224
496,-0.00154209136962891,0.0000841681745423101
497,-0.00140905380249023,0.0000803834877866454
498,-0.00148916244506836,0.0000732763900966193
499,-0.00148487091064453,0.0000652169607758679
500,-0.00146102905273437,0.0000576036260367419
501,-0.0015559196472168,0.0000663677846600766
502,-0.00143527984619141,0.000060445575443512
503,-0.00147247314453125,0.0000525224820178465
504,-0.00139617919921875,0.0000525387135346959
505,-0.00142812728881836,0.0000726750514748413
506,-0.00143194198608398,0.0000734607841842821
507,-0.00148534774780273,0.0000527568115137809
508,-0.00144338607788086,0.000067025734456307
509,-0.00154972076416016,0.0000675242498193289
510,-0.00150728225708008,0.0000876810054349662
511,-0.00137853622436523,0.0000746109220950703
512,-0.00152444839477539,0.000052722321480503
513,-0.00145673751831055,0.0000705187184768621
514,-0.00157308578491211,0.0000655421303449086
515,-0.00152349472045898,0.000072275049772607
516,-0.00155305862426758,0.0000626709890587853
517,-0.0014958381652832,0.0000600852662363049
518,-0.00149202346801758,0.0000760895255459713
519,-0.00149965286254883,0.0000627724923468171
520,-0.00149774551391602,0.0000531304449504023
521,-0.00149679183959961,0.0000640507863029193
522,-0.00147676467895508,0.0000499405831557543
523,-0.00144767761230469,0.0000545056368033736
524,-0.00146341323852539,0.0000650249249791366
525,-0.00146675109863281,0.0000638694849762156
526,-0.0014805793762207,0.0000493290287213672
527,-0.00141668319702148,0.0000473151266342389
528,-0.00150346755981445,0.0000571110792599226
529,-0.00141334533691406,0.0000546909562949462
530,-0.00144147872924805,0.000053875213724593
531,-0.00144338607788086,0.0000609661994261617
532,-0.0014500617980957,0.0000652692361155269
533,-0.00149631500244141,0.000065451871012416
534,-0.00141477584838867,0.0000632308366937667
535,-0.00148296356201172,0.0000678266288064129
536,-0.0015106201171875,0.0000702133607724353
537,-0.00155878067016602,0.0000482242465201207
538,-0.00145387649536133,0.0000487681109449219
539,-0.00155305862426758,0.0000418307418388947
540,-0.00145435333251953,0.0000580234608782339
541,-0.00147533416748047,0.0000606792848778723
542,-0.00148916244506836,0.0000548424924557872
543,-0.00156545639038086,0.0000687257838076967
544,-0.00151395797729492,0.0000583049210749124
545,-0.00157690048217773,0.0000388410135882915
546,-0.00151777267456055,0.0000358802139118426
547,-0.00152921676635742,0.0000350110194697964
548,-0.00158023834228516,0.000030568757950771
549,-0.00147533416748047,0.0000546992705175991
550,-0.00159454345703125,0.0000482336754470894
551,-0.00155258178710937,0.0000503780206568039
552,-0.00150299072265625,0.0000460586190835695
553,-0.00150251388549805,0.0000443573905955705
554,-0.00158309936523437,0.0000425555458370173
555,-0.00156259536743164,0.0000468939708496649
556,-0.00155258178710937,0.0000454323477895834
557,-0.00148439407348633,0.0000531486298682195
558,-0.00152301788330078,0.0000513026703017799
559,-0.00153112411499023,0.0000543772099532655
560,-0.00149679183959961,0.0000491732178274012
561,-0.00154256820678711,0.0000531240252578944
562,-0.00159263610839844,0.0000408232207715311
563,-0.00155544281005859,0.0000410807042607418
564,-0.00150346755981445,0.0000479286578468767
565,-0.00155735015869141,0.0000380350497568698
566,-0.00154638290405273,0.0000306198522316841
567,-0.00153064727783203,0.000042339273224684
568,-0.00155401229858398,0.0000396291556342853
569,-0.00160694122314453,0.0000296248876031867
570,-0.00158834457397461,0.0000350767130906274
571,-0.00157785415649414,0.0000367435442134132
572,-0.00162935256958008,0.0000381648498606944
573,-0.00162410736083984,0.000046005519862983
574,-0.00158262252807617,0.0000263401281110323
575,-0.00169229507446289,0.0000275391520283559
576,-0.00164699554443359,0.0000322262201101364
577,-0.00161552429199219,0.0000320342666639049
578,-0.0016789436340332,0.0000286186722378232
579,-0.00165271759033203,0.0000307319606333915
580,-0.00164127349853516,0.000031409781561612
581,-0.00158071517944336,0.0000199856071581572
582,-0.00172805786132812,0.0000176631000794749
583,-0.00177669525146484,0.000021840365138213
584,-0.00162553787231445,0.0000285191875545197
585,-0.00160741806030273,0.000026762950124297
586,-0.00168371200561523,0.0000450642650247536
587,-0.00160980224609375,0.0000329923419563633
588,-0.00162887573242187,0.0000383468695268628
589,-0.00170803070068359,0.0000362019594118162
590,-0.00168561935424805,0.0000396155266445878
591,-0.00165224075317383,0.000027048690248466
592,-0.0015263557434082,0.0000252588703883152
593,-0.00160932540893555,0.0000258862636013897
594,-0.0016179084777832,0.0000347944124091425
595,-0.00163459777832031,0.0000244898940871614
596,-0.0016021728515625,0.0000328334499968435
597,-0.00165224075317383,0.0000343943075219182
598,-0.00157451629638672,0.0000426809213142396
599,-0.00159978866577148,0.0000366001640552854
600,-0.00161027908325195,0.0000265363198813944
601,-0.00163698196411133,0.0000310045005822562
602,-0.00164270401000977,0.0000335535505417409
603,-0.00168704986572266,0.000025100845695976
604,-0.00170135498046875,0.0000200335458385862
605,-0.00159168243408203,0.0000233984484262925
606,-0.00165176391601562,0.000031112482700368
607,-0.00168609619140625,0.0000225239320131435
608,-0.00161552429199219,0.0000243554818782541
609,-0.00169515609741211,0.0000254522302175507
610,-0.00163173675537109,0.0000365325420882932
611,-0.00163078308105469,0.0000296608427680119
612,-0.00162220001220703,0.0000272282994417956
613,-0.00160455703735352,0.0000215406271335368
614,-0.00176191329956055,0.0000262200825592148
615,-0.00168991088867187,0.0000233546788819475
616,-0.00183963775634766,0.0000319747671083073
617,-0.00178050994873047,0.0000411926315791305
618,-0.00170564651489258,0.0000369140953692663
619,-0.00164127349853516,0.0000339225319134377
620,-0.00156450271606445,0.0000310438934955997
621,-0.00170183181762695,0.0000253739430070878
622,-0.00163078308105469,0.0000452920003957524
623,-0.00167417526245117,0.0000541162908901638
624,-0.00174427032470703,0.0000529020688082519
625,-0.00182580947875977,0.0000429954046936686
626,-0.00167560577392578,0.0000348963688978537
627,-0.00162887573242187,0.000030585489111543
628,-0.0016484260559082,0.0000325308150671277
629,-0.00162124633789062,0.0000341904213029398
630,-0.00172901153564453,0.0000314703493277698
631,-0.00173044204711914,0.0000314929193991821
632,-0.00168037414550781,0.0000360098885176385
633,-0.00162315368652344,0.0000374362724107679
634,-0.00160074234008789,0.0000260427965498664
635,-0.00172567367553711,0.0000314369158842595
636,-0.00155115127563477,0.0000336955553200386
637,-0.00165319442749023,0.0000436338569384361
638,-0.00185489654541016,0.0000407060887312028
639,-0.00179815292358398,0.0000464861206319959
640,-0.00167751312255859,0.0000435843248369237
641,-0.00166416168212891,0.000034913468376132
642,-0.00157070159912109,0.0000510839277372245
643,-0.00155401229858398,0.0000341504966986894
644,-0.00164890289306641,0.0000333104118281803
645,-0.00166654586791992,0.0000349752823274465
646,-0.00160694122314453,0.000032618066632125
647,-0.00160646438598633,0.0000266714635019075
648,-0.00169134140014648,0.0000337486530651819
649,-0.00164651870727539,0.0000482631289710706
650,-0.00168800354003906,0.0000526705440837939
651,-0.00164937973022461,0.0000457254265429885
652,-0.00169563293457031,0.0000469303218312092
653,-0.00169467926025391,0.000038314985782318
654,-0.00169801712036133,0.0000344578776648324
655,-0.00118017196655273,0.000018299693750545
656,-0.00122594833374023,0.0000257635518133206
657,-0.00298261642456055,0.0000364101938290881
658,-0.00202274322509766,0.0000375424102936097
659,-0.00168466567993164,0.0000472369724258674
660,-0.00171709060668945,0.0000491893989313669
661,-0.00171613693237305,0.0000369302606100657
662,-0.00172281265258789,0.0000475260990599173
663,-0.00172948837280273,0.0000477206563911446
664,-0.00163936614990234,0.0000387009979659883
665,-0.00174045562744141,0.0000372421726031621
666,-0.00173330307006836,0.0000379505165139592
667,-0.00173330307006836,0.000050907810331048
668,-0.00172567367553711,0.0000364281431492955
669,-0.00165939331054687,0.0000247892270874823
670,-0.00164175033569336,0.0000246950322787434
671,-0.00168561935424805,0.0000349354411215947
672,-0.00163459777832031,0.0000442727316658729
673,-0.00170183181762695,0.000038767770050388
674,-0.00166511535644531,0.0000455185963917656
675,-0.0017237663269043,0.0000450957886411167
676,-0.00171089172363281,0.00003466019062562
677,-0.00172519683837891,0.0000385582626722786
678,-0.00170469284057617,0.0000295610195721866
679,-0.00167322158813477,0.0000283096337404519
680,-0.00171184539794922,0.0000220823746163641
681,-0.00171566009521484,0.0000261489863183386
682,-0.00171232223510742,0.0000397015259353006
683,-0.0016636848449707,0.0000286821613457397
684,-0.00163698196411133,0.0000401684010680539
685,-0.00171136856079102,0.0000393209993898169
686,-0.00161838531494141,0.000038646614736193
687,-0.00165939331054687,0.0000268509497619927
688,-0.00170183181762695,0.0000212727632796234
689,-0.0016789436340332,0.0000333990307003736
690,-0.00168704986572266,0.000034583023766458
691,-0.0016632080078125,0.0000333990307003736
692,-0.00169277191162109,0.000033044849467294
693,-0.00162887573242187,0.0000444060604003714
694,-0.00171089172363281,0.0000330929797354715
695,-0.00167655944824219,0.0000306829057159309
696,-0.00174856185913086,0.0000334305019140058
697,-0.00163125991821289,0.0000373275485816592
698,-0.00169706344604492,0.0000357222327130637
699,-0.00168037414550781,0.0000353969297896008
700,-0.00170087814331055,0.0000351220590611996
701,-0.00169944763183594,0.000034385216478958
702,-0.00170278549194336,0.0000403272886964611
703,-0.00166988372802734,0.0000287108836264231
704,-0.00173282623291016,0.0000279946461994782
705,-0.00172281265258789,0.0000297154112975707
706,-0.00173807144165039,0.0000424210909135475
707,-0.00164985656738281,0.0000309411838890132
708,-0.0018010139465332,0.0000282734681183533
709,-0.00178289413452148,0.0000384038975334864
710,-0.0017247200012207,0.0000413736959380519
711,-0.00172567367553711,0.0000475631620460881
712,-0.00172996520996094,0.0000318098993890462
713,-0.00173139572143555,0.0000306421212180689
714,-0.00174617767333984,0.0000384105576180856
715,-0.00175094604492187,0.0000439635067767028
716,-0.00176239013671875,0.0000372848850294583
717,-0.00179719924926758,0.0000377959251691365
718,-0.00182771682739258,0.0000351544132286805
719,-0.00182771682739258,0.0000340212535754309
720,-0.00185155868530273,0.0000267199053308905
721,-0.00184869766235352,0.0000299739663175313
722,-0.0018620491027832,0.0000364499825656154
723,-0.00185871124267578,0.000044945538371182
724,-0.00191164016723633,0.0000347592702438713
725,-0.00190210342407227,0.0000534249169193448
726,-0.00191736221313477,0.0000394213422936819
727,-0.0019536018371582,0.0000376633444833496
728,-0.00194168090820312,0.0000458892285304241
729,-0.00196456909179687,0.0000523924488527538
730,-0.00206470489501953,0.0000486128408521785
731,-0.00214099884033203,0.0000439208180987147
732,-0.00206422805786133,0.0000360098885176385
733,-0.00211620330810547,0.0000367350345549801
734,-0.00217580795288086,0.000046210170665397
735,-0.00226259231567383,0.0000399790351500408
736,-0.00218534469604492,0.0000432964463575445
737,-0.00217819213867187,0.0000390155086302047
738,-0.00219917297363281,0.0000350329310310129
739,-0.00220870971679687,0.0000352682249555063
740,-0.00224971771240234,0.0000364640152831961
741,-0.00228023529052734,0.0000336567326260019
742,-0.00220537185668945,0.0000376135062447873
743,-0.00222015380859375,0.0000473427502969743
744,-0.00217151641845703,0.0000291144133042788
745,-0.00218772888183594,0.00002460683030594
746,-0.00222110748291016,0.0000428649818763144
747,-0.00216388702392578,0.000037430198298464
748,-0.00216531753540039,0.0000390096804181051
749,-0.00210046768188477,0.0000486689353071327
750,-0.00204133987426758,0.0000545285755707147
751,-0.00207090377807617,0.0000390482761146035
752,-0.00209951400756836,0.0000368138668504055
753,-0.00213146209716797,0.0000357150713178139
754,-0.00206184387207031,0.0000355075630018834
755,-0.00204229354858398,0.0000310768352063901
756,-0.00196504592895508,0.0000393874420031204
757,-0.00197744369506836,0.0000381581468905344
758,-0.0019841194152832,0.0000408594078755668
759,-0.00203323364257812,0.000037256669807728
760,-0.00192451477050781,0.0000327623912184175
761,-0.0019683837890625,0.0000413929261022034
762,-0.00189638137817383,0.0000386561740865922
763,-0.00186014175415039,0.0000306810530512722
764,-0.0018010139465332,0.0000340438021841423
765,-0.0018467903137207,0.0000436012763618322
766,-0.0019068717956543,0.0000518317823559976
767,-0.00185251235961914,0.0000537569133046696
768,-0.0018162727355957,0.0000423473278758031
769,-0.00178146362304687,0.0000379677376506698
770,-0.00176858901977539,0.0000449328894140826
771,-0.00172662734985352,0.0000471418105696223
772,-0.00180625915527344,0.0000534174684908864
773,-0.00174617767333984,0.0000398365983456926
774,-0.00176620483398437,0.0000342028881844126
775,-0.0017242431640625,0.000043239955286398
776,-0.00166988372802734,0.0000382206622300544
777,-0.00173425674438477,0.0000286568817613168
778,-0.00173807144165039,0.0000308510324852406
779,-0.00169277191162109,0.0000369641077148799
780,-0.0016627311706543,0.0000453170943089169
781,-0.00173807144165039,0.0000535322717475055
782,-0.00166511535644531,0.0000468308956404604
783,-0.00161504745483398,0.0000532458670612252
784,-0.00159835815429687,0.0000432675531635642
785,-0.00166225433349609,0.0000370846285665421
786,-0.00159978866577148,0.0000293724529067614
787,-0.00159978866577148,0.0000388695411588742
788,-0.00161027908325195,0.000046637501855159
789,-0.00163602828979492,0.0000373191720903433
790,-0.0015864372253418,0.0000302326603786759
791,-0.00162172317504883,0.0000337680171515564
792,-0.00156068801879883,0.0000344768434140708
793,-0.00158119201660156,0.0000412471032498524
794,-0.00155401229858398,0.0000607326581259219
795,-0.0015716552734375,0.0000454010578591581
796,-0.00161981582641602,0.0000392602361917204
797,-0.00157403945922852,0.0000407235404313534
798,-0.00161123275756836,0.000044775745479229
799,-0.00159692764282227,0.0000474698515953036
800,-0.00159788131713867,0.0000598853178661379
801,-0.00153017044067383,0.000046754363600751
802,-0.00156116485595703,0.0000400223774915822
803,-0.00163984298706055,0.0000495589592519637
804,-0.00161600112915039,0.000032758053380113
805,-0.0015873908996582,0.0000416031881097199
806,-0.00163984298706055,0.0000437158522975404
807,-0.00165605545043945,0.0000339936738529593
808,-0.00168895721435547,0.0000306727146755098
809,-0.00162220001220703,0.0000430673978483512
810,-0.00170660018920898,0.0000312055220835112
811,-0.00163173675537109,0.0000382340450756051
812,-0.00163650512695312,0.000035787414971647
813,-0.00168275833129883,0.0000367953332696787
814,-0.00178337097167969,0.0000391551254639141
815,-0.00166940689086914,0.0000343835633038096
816,-0.00173091888427734,0.0000489205643965576
817,-0.00177907943725586,0.0000429583704685843
818,-0.00176811218261719,0.0000392406851815871
819,-0.00176239013671875,0.0000368393352994023
820,-0.00175809860229492,0.0000430297650766664
821,-0.00181055068969727,0.0000389133888916535
822,-0.00178432464599609,0.0000476169118225858
823,-0.00186014175415039,0.0000486198561983225
824,-0.00184965133666992,0.0000396649990196577
825,-0.00188589096069336,0.0000409045967364046
826,-0.00192070007324219,0.0000352923928641574
827,-0.00196647644042969,0.000045839653375747
828,-0.00198125839233398,0.0000477896943178082
829,-0.00197792053222656,0.0000473235355428788
830,-0.00215530395507812,0.0000451965164606964
831,-0.00216484069824219,0.0000350540181079728
832,-0.00215625762939453,0.0000272095040188643
833,-0.00221872329711914,0.0000317723508030031
834,-0.00229454040527344,0.0000321202125199019
835,-0.00234889984130859,0.00003421036613258
836,-0.00224113464355469,0.0000397794808192261
837,-0.00225830078125,0.0000386422019307203
838,-0.00231695175170898,0.0000596761274851981
839,-0.00230550765991211,0.0000649041761748561
840,-0.00220680236816406,0.0000434537074105112
841,-0.00227928161621094,0.0000349297458111047
842,-0.00225114822387695,0.0000402072982479721
843,-0.00222301483154297,0.0000305873475644757
844,-0.00216960906982422,0.0000310722620571922
845,-0.00216388702392578,0.0000467531477964159
846,-0.0021510124206543,0.0000485519987246427
847,-0.00202178955078125,0.0000416277746699452
848,-0.00207614898681641,0.0000470210763382761
849,-0.0020747184753418,0.0000397358735363483
850,-0.00206518173217773,0.0000536510675035791
851,-0.00207138061523437,0.0000655889467775322
852,-0.00203609466552734,0.0000532768174480757
853,-0.00197553634643555,0.0000616965371847979
854,-0.00205469131469727,0.0000508910586462508
855,-0.00198030471801758,0.0000508195227498444
856,-0.00197172164916992,0.0000449556549743986
857,-0.00197792053222656,0.000044256037331284
858,-0.00201559066772461,0.0000440964814060093
859,-0.00196027755737305,0.0000370040689240792
860,-0.00194120407104492,0.0000532789512947752
861,-0.00186491012573242,0.0000643200126297376
862,-0.00183916091918945,0.0000424371676287205
863,-0.00182294845581055,0.0000424933882331408
864,-0.00189590454101562,0.0000611988495145204
865,-0.00181436538696289,0.0000468005407612418
866,-0.0017704963684082,0.0000456557572451255
867,-0.00176572799682617,0.0000413977322474855
868,-0.00176620483398437,0.000055082432091498
869,-0.00171279907226562,0.0000472694521713616
870,-0.00177383422851562,0.0000373922127416832
871,-0.00172662734985352,0.0000316531530947645
872,-0.00173854827880859,0.0000380723939482482
873,-0.00163555145263672,0.0000461030272112725
874,-0.00167655944824219,0.0000414059700557882
875,-0.00170326232910156,0.0000354418660624146
876,-0.00169038772583008,0.0000559527312754066
877,-0.00178432464599609,0.0000665405709466492
878,-0.00157403945922852,0.0000582278503928469
879,-0.00168180465698242,0.0000405353656156018
880,-0.00163364410400391,0.0000435699760876173
881,-0.00162267684936523,0.0000514144566314088
882,-0.00160598754882812,0.0000547647009115722
883,-0.00156116485595703,0.0000552318650471277
884,-0.00160455703735352,0.0000510594414641612
885,-0.00156164169311523,0.0000389819845108735
886,-0.00162220001220703,0.0000400429664139119
887,-0.00166702270507812,0.0000608271167625919
888,-0.00167655944824219,0.0000535535046024367
889,-0.0014805793762207,0.0000485578522419013
890,-0.00154924392700195,0.0000367883807697074
891,-0.00158357620239258,0.0000440951923179024
892,-0.00159978866577148,0.0000568766996877331
893,-0.00164127349853516,0.0000361508927003032
894,-0.0015568733215332,0.0000433961111951125
895,-0.00152778625488281,0.0000428072574900083
896,-0.00158452987670898,0.00004539730161824
897,-0.00166082382202148,0.000076168672711355
898,-0.00151538848876953,0.0000602647468911531
899,-0.00166702270507812,0.0000684539558916033
900,-0.00164318084716797,0.0000558164321765837
901,-0.00162744522094727,0.0000521292286731713
902,-0.00168418884277344,0.0000334083901038641
903,-0.00173377990722656,0.000032338911858644
904,-0.00169849395751953,0.0000520091427530815
905,-0.00166654586791992,0.0000536987239324276
906,-0.00175905227661133,0.000038698794726798
907,-0.00168418884277344,0.0000455622832702303
908,-0.00173568725585937,0.0000499860912599263
909,-0.00170707702636719,0.0000550514642855469
910,-0.00178289413452148,0.0000426142781511811
911,-0.00192165374755859,0.0000384615799523845
912,-0.00193071365356445,0.0000422841920444018
913,-0.00192356109619141,0.0000439557482825496
914,-0.00192880630493164,0.0000434707098700804
915,-0.00209712982177734,0.0000620035007430562
916,-0.00203275680541992,0.0000495876256043868
917,-0.00214147567749023,0.0000661945473544953
918,-0.00229310989379883,0.0000683675408807902
919,-0.00224781036376953,0.0000844863408675591
920,-0.00225543975830078,0.000064478893100607
921,-0.00239801406860352,0.0000742963708315241
922,-0.00252342224121094,0.0000531518383255195
923,-0.00265789031982422,0.0000452995300292969
924,-0.00268983840942383,0.0000728828087116899
925,-0.00286531448364258,0.0000523218792890366
926,-0.00295257568359375,0.0000688117489321795
927,-0.00298786163330078,0.0000732096460689974
928,-0.00325870513916016,0.0000683176363454066
929,-0.00343942642211914,0.0000687324003268039
930,-0.00356054306030273,0.0000796332330632867
931,-0.00369167327880859,0.0000774709980379726
932,-0.00385093688964844,0.0000777405447194777
933,-0.00394105911254883,0.0000669765275512215
934,-0.00425100326538086,0.0000826759180848598
935,-0.00430631637573242,0.0000617665192500111
936,-0.0046238899230957,0.000060943818294928
937,-0.00464248657226563,0.0000819688484080843
938,-0.00494527816772461,0.0000793543567890277
939,-0.0050816535949707,0.0000647972398388598
940,-0.00548791885375977,0.0000696818831482776
941,-0.00546741485595703,0.0000655785460141752
942,-0.0058140754699707,0.0000674602409867938
943,-0.00588369369506836,0.0000854310693369357
944,-0.00606012344360352,0.0000812038420367483
945,-0.00629615783691406,0.0000782608758922001
946,-0.00657176971435547,0.0000943703985355605
947,-0.00682306289672852,0.0000890294688625686
948,-0.00708675384521484,0.0000819480414910317
949,-0.00749826431274414,0.0000625075134589155
950,-0.00786161422729492,0.0000725153155683379
951,-0.00831270217895508,0.0000574395831941617
952,-0.0085597038269043,0.0000734654267938055
953,-0.00908851623535156,0.0000625147881186386
954,-0.00937700271606445,0.0000807292490936796
955,-0.00990581512451172,0.0000784422488512711
956,-0.0103397369384766,0.000130042856338846
957,-0.01080322265625,0.000112262496330999
958,-0.0111913681030273,0.0000862205446434692
959,-0.0113320350646973,0.0000885172122006436
960,-0.0116915702819824,0.0000837022404803617
961,-0.0117630958557129,0.000100074476808888
962,-0.0118765830993652,0.00011833442092581
963,-0.011784553527832,0.00012784928150077
964,-0.011754035949707,0.000108224178303334
965,-0.0115633010864258,0.000107285181634219
966,-0.0114974975585937,0.000200761468424021
967,-0.0112886428833008,0.000155003617818216
968,-0.0111865997314453,0.000124942254906939
969,-0.0109972953796387,0.000103140219018999
970,-0.0106301307678223,0.000111259505834245
971,-0.0104141235351562,0.000145859178881112
972,-0.0104055404663086,0.000174795780874024
973,-0.0098576545715332,0.000142818898177592
974,-0.00979471206665039,0.000137953530707259
975,-0.0093536376953125,0.00012632135426208
976,-0.00926923751831055,0.000125207668193525
977,-0.00900793075561523,0.000129376738602536
978,-0.00863885879516602,0.000142850735467757
979,-0.0085139274597168,0.000133091392703396
980,-0.00830364227294922,0.000100976953318944
981,-0.00779533386230469,0.000115504882062652
982,-0.00764560699462891,0.000158677192198128
983,-0.00703907012939453,0.0001865597578457
984,-0.00678873062133789,0.000195733376861185
985,-0.00655364990234375,0.0000941412296575008
986,-0.00593280792236328,0.000128190289303181
987,-0.00564908981323242,0.000149066342793121
988,-0.00530242919921875,0.000166903904150272
989,-0.00532245635986328,0.00019090168333475
990,-0.00497817993164063,0.000178130432985085
991,-0.00454044342041016,0.000210379776041039
992,-0.0043940544128418,0.00019423609144272
993,-0.0044398307800293,0.000190639471995823
994,-0.00368547439575195,0.000218293530377542
995,-0.0034480094909668,0.000262147705818614
996,-0.00303936004638672,0.000215661169567597
997,-0.00303030014038086,0.000199844267729282
998,-0.00228643417358398,0.00019694240541795
999,-0.00271034240722656,0.000240870268018904
1000,-0.00237512588500977,0.000281338772489492
1001,-0.00185537338256836,0.000298784808762466
1002,-0.00200033187866211,0.000181423849747386
1003,-0.00177955627441406,0.00024276584742275
1004,-0.00130462646484375,0.000208582330397399
1005,-0.000970840454101563,0.00026786536919182
1006,-0.000824451446533203,0.000258091828537537
1007,-0.000683307647705078,0.000290048719897185
1008,-0.000448226928710938,0.000223261655071728
1009,-0.000421047210693359,0.000188822698050055
1010,-0.000349998474121094,0.000256110831266199
1011,-0.000159740447998047,0.000276493194585735
1012,0.000152111053466797,0.000213265119150462
1013,0.000123023986816406,0.000196896219257183
1014,-0.000109195709228516,0.000162539232485883
1015,0.000117778778076172,0.000224220980562935
1016,0.000459194183349609,0.000242949351008928
1017,0.000102996826171875,0.000258070684157322
1018,0.000354766845703125,0.000223277949164223
1019,0.000144004821777344,0.00027921655723824
1020,0.000550270080566406,0.000257145683995861
1021,0.000569343566894531,0.000241616733521089
1022,0.000523567199707031,0.000307053511239635
1023,0.00113677978515625,0.000327414601856074
1024,0.000838756561279297,0.000325654295542882
1025,0.000606060028076172,0.000427382311223173
1026,0.000767230987548828,0.000289446046696988
1027,0.000709056854248047,0.000287054385057305
1028,0.000235557556152344,0.00043402974389876
1029,0.000695228576660156,0.000402002853930949
1030,0.00107097625732422,0.000270137403725313
1031,0.000911235809326172,0.000315664758131537
1032,0.00146484375,0.000308401228811764
1033,0.00132894515991211,0.000312333798542784
1034,0.000169277191162109,0.000407030164576234
1035,0.000624656677246094,0.000340262656686998
1036,0.000499248504638672,0.000369966639898814
1037,0.00110483169555664,0.000451369127383287
1038,0.000514984130859375,0.000443859329426841
1039,0.000569820404052734,0.000418348998387194
1040,-0.0000481605529785156,0.000404564786568302
1041,0.000376224517822266,0.000414575289618473
1042,0.000957012176513672,0.000572166441599443
1043,0.000512123107910156,0.00052330917504152
1044,0.000348091125488281,0.00050994384507602
1045,-0.00000715255737304688,0.000409605061767376
1046,-0.000401973724365234,0.000330709172654159
1047,-0.000205516815185547,0.000573538179842661
1048,0.000072479248046875,0.000515266623547027
1049,0.000417232513427734,0.000502136470655053
1050,-0.000278472900390625,0.000431440405668795
1051,-0.000446796417236328,0.000674748673025678
1052,0.0004730224609375,0.000587017335866435
1053,0.00137758255004883,0.000592151120359261
1054,-0.00101137161254883,0.000545448353965763
1055,-0.0000333786010742187,0.000751059546182866
1056,-0.000241756439208984,0.000563272054804854
1057,0.000404834747314453,0.00066197913500883
1058,-0.000157833099365234,0.000730492115922008
1059,-0.0000314712524414062,0.000750807626570532
1060,-0.000049591064453125,0.000759440983988283
1061,0.000451087951660156,0.000768337228685677
1062,-0.000749111175537109,0.000555061392293666
1063,-0.000142097473144531,0.000893747017178526
1064,-0.000465869903564453,0.000800850243038635
1065,-0.000341892242431641,0.000805452347883505
1066,0.000529289245605469,0.00126902772014362
1067,-0.000304698944091797,0.000862425353959568
1068,-0.000334262847900391,0.000723627056968956
1069,-0.0000100135803222656,0.000889912540960167
1070,-0.00123262405395508,0.000850429413208311
1071,-0.00170516967773437,0.00115420913846951
1072,-0.00117826461791992,0.000812503653068767
1073,-0.000527381896972656,0.000911321516213325
1074,-0.00253820419311523,0.00092646109892968
1075,-0.00150060653686523,0.00107979519157925
1076,-0.00314760208129883,0.00118580034773423
1077,-0.00236892700195312,0.0013714460058992
1078,-0.000644683837890625,0.00146631326080809
1079,-0.000656604766845703,0.00134608553835755
1080,-0.000792503356933594,0.00153090602553516
1081,-0.00257682800292969,0.001934769927755
1082,-0.00156402587890625,0.0014456041789215
1083,0.00121688842773437,0.00172508691719053
1084,-0.00170278549194336,0.00167648892476738
1085,-0.000345230102539062,0.00154091106296962
1086,-0.00438117980957031,0.00142940732941472
1087,-0.000770092010498047,0.00165640463197167
1088,-0.00218868255615234,0.00174588154563665
1089,-0.00211143493652344,0.00187655190973843
1090,-0.00157928466796875,0.00167398721969319
1091,-0.00276470184326172,0.00130667720481179
1092,-0.00495386123657227,0.00150099491115615
1093,-0.0000352859497070312,0.0019683837890625
1094,-0.00244474411010742,0.0024069742221385
1095,0.000897884368896484,0.0023305521352584
1096,-0.00833892822265625,0.00284215171145514
1097,-0.00399160385131836,0.00305061318866309
1098,0.000147819519042969,0.00203503283970342
1099,-0.00478792190551758,0.0027184636524283
1100,0.000428676605224609,0.00200645823764639
