Wavelength (nm),Absorbance (AU),Std.Dev.
190,0.0290212631225586,0.0000660931392250011
191,0.0316648483276367,0.0000572423098486811
192,0.0314145088195801,0.0000598045810513044
193,0.0300636291503906,0.0000385847895340045
194,0.0281262397766113,0.0000350929148065447
195,0.0256905555725098,0.0000386282247210017
196,0.023165225982666,0.0000294979767816679
197,0.0208244323730469,0.0000324827268081717
198,0.0186347961425781,0.0000221427845896558
199,0.016578197479248,0.000030454182342216
200,0.0147490501403809,0.0000299521494749659
201,0.0131182670593262,0.0000249395406769042
202,0.011716365814209,0.0000288447069991298
203,0.0105361938476562,0.0000218735240999575
204,0.0095219612121582,0.0000243058357646961
205,0.0086665153503418,0.0000267772830121025
206,0.00785017013549805,0.0000348156439519345
207,0.00710964202880859,0.0000315614333026369
208,0.00664520263671875,0.0000256922984865335
209,0.00620460510253906,0.0000379280424107344
210,0.00563478469848633,0.0000247961053415235
211,0.00527524948120117,0.0000296685075637386
212,0.00494241714477539,0.0000245148331812781
213,0.00460577011108398,0.0000316127212841898
214,0.00435829162597656,0.0000320945414856904
215,0.00420427322387695,0.00002760615360145
216,0.00394105911254883,0.0000265239999534533
217,0.00374031066894531,0.0000260629786361163
218,0.0035252571105957,0.0000297674929228463
219,0.00335788726806641,0.0000304490489724919
220,0.00320243835449219,0.0000290210357422192
221,0.00307512283325195,0.0000256585361477594
222,0.00290298461914062,0.0000207910023502239
223,0.00281000137329102,0.0000191322553755216
224,0.00265216827392578,0.0000196771173592677
225,0.00254058837890625,0.0000248836364233763
226,0.00246906280517578,0.0000272715839726044
227,0.00234127044677734,0.0000253111388971484
228,0.00224685668945312,0.0000229024594211649
229,0.00215387344360352,0.0000292672765868899
230,0.00206184387207031,0.0000275391520283559
231,0.00202035903930664,0.0000217765061900731
232,0.00200557708740234,0.0000236905782141802
233,0.00190401077270508,0.0000359561777525117
234,0.00185537338256836,0.0000330233400921924
235,0.00178146362304687,0.0000454148280845096
236,0.00172042846679687,0.0000446817027118405
237,0.00161266326904297,0.0000296905328293955
238,0.00157594680786133,0.0000246016321068431
239,0.00150918960571289,0.0000290308275758679
240,0.00147438049316406,0.0000250015730605671
241,0.00144338607788086,0.0000274730215963554
242,0.00143051147460937,0.0000255263806757136
243,0.00146484375,0.0000289253916518382
244,0.00137662887573242,0.0000366335403132814
245,0.00134515762329102,0.0000258026848100583
246,0.00133657455444336,0.0000306170674695273
247,0.00130033493041992,0.0000269117446425451
248,0.00130748748779297,0.0000330345267150869
249,0.00123834609985352,0.0000328542186141732
250,0.00123929977416992,0.0000267225644248246
251,0.0011897087097168,0.0000371527756728485
252,0.00117158889770508,0.0000328620034617129
253,0.00112295150756836,0.0000290048719897185
254,0.00115013122558594,0.0000256673961397872
255,0.00116920471191406,0.0000285754389631289
256,0.0010685920715332,0.0000368401067957281
257,0.00112342834472656,0.0000305482963099071
258,0.00105714797973633,0.0000400628353334331
259,0.000970840454101563,0.0000269370793100925
260,0.000971317291259766,0.0000386951223827053
261,0.00101995468139648,0.0000471659203295831
262,0.000992774963378906,0.0000389484315363069
263,0.000857830047607422,0.0000355035605712782
264,0.000956058502197266,0.0000287623138219228
265,0.000910758972167969,0.0000405206386153333
266,0.000862598419189453,0.0000336499762809321
267,0.000874042510986328,0.0000415963559305877
268,0.000769138336181641,0.0000382503955281294
269,0.000791549682617188,0.000037335161942929
270,0.000867843627929688,0.0000409705523389624
271,0.000773906707763672,0.0000334483507817414
272,0.000750541687011719,0.0000448239610370851
273,0.000730991363525391,0.0000354218122703316
274,0.000777244567871094,0.0000344727213127141
275,0.000736236572265625,0.0000301564161770698
276,0.000691890716552734,0.0000365628708496541
277,0.000703811645507813,0.0000358928857165505
278,0.000655174255371094,0.0000416796320017962
279,0.000636100769042969,0.000037843270138549
280,0.000676155090332031,0.0000401981077658662
281,0.000567436218261719,0.0000469133615450094
282,0.000568866729736328,0.0000343008029582545
283,0.000596046447753906,0.0000404209152335298
284,0.000565052032470703,0.0000258362587787487
285,0.000557899475097656,0.000037960999875403
286,0.000507354736328125,0.0000429887937791203
287,0.000512123107910156,0.0000351713872522666
288,0.00046539306640625,0.0000252577451462883
289,0.000429630279541016,0.0000213979844593786
290,0.000418663024902344,0.000030935671965234
291,0.000446796417236328,0.0000360895172641266
292,0.000347137451171875,0.0000299630598819213
293,0.000360012054443359,0.0000199375532123084
294,0.000290870666503906,0.0000217980306050224
295,0.000300407409667969,0.0000269961010743111
296,0.000273227691650391,0.0000274274644326437
297,0.000162601470947266,0.0000326171952718023
298,0.000241756439208984,0.0000301521747351624
299,0.000134468078613281,0.0000385796329615951
300,0.000181674957275391,0.0000435112273853321
301,0.000120162963867187,0.0000381864403163781
302,0.0000934600830078125,0.000041057174602221
303,0.000110626220703125,0.0000393881635896881
304,0.0000500679016113281,0.0000298913579377654
305,-0.0000295639038085937,0.0000266175951708848
306,0.0000200271606445312,0.0000361831124034698
307,0.00000667572021484375,0.000041650981983778
308,-0.0000376701354980469,0.0000410647886141489
309,-0.000111103057861328,0.0000467993261565477
310,-0.0000748634338378906,0.0000664875852920477
311,-0.000128746032714844,0.0000421589850558543
312,-0.00012969970703125,0.0000339317469197456
313,-0.000105857849121094,0.0000362207966133746
314,-0.000196933746337891,0.0000362286425566299
315,-0.000136852264404297,0.0000375530075828526
316,-0.000250816345214844,0.0000497992437498737
317,-0.000237464904785156,0.000043354174978328
318,-0.000226974487304687,0.0000410537132208885
319,-0.000370502471923828,0.0000459845102357528
320,-0.00048065185546875,0.0000493186566428362
321,-0.000399589538574219,0.0000548808290002873
322,-0.000458240509033203,0.0000435438753388018
323,-0.000469207763671875,0.0000357691441289705
324,-0.00051116943359375,0.0000469036671993885
325,-0.000558376312255859,0.0000472465983819357
326,-0.000584602355957031,0.0000403484264398693
327,-0.000518798828125,0.000036730392092141
328,-0.000579357147216797,0.0000390890150679001
329,-0.000520229339599609,0.0000487890869787004
330,-0.000666618347167969,0.0000607766323878925
331,-0.000645637512207031,0.0000580606761252516
332,-0.000632762908935547,0.000052319706408399
333,-0.000622272491455078,0.000048248993523446
334,-0.000620365142822266,0.0000358072640091977
335,-0.000750541687011719,0.00003490206965478
336,-0.000739574432373047,0.0000363781752497081
337,-0.000742912292480469,0.0000501087566990003
338,-0.000714302062988281,0.0000506211548884972
339,-0.000729084014892578,0.0000535322717475055
340,-0.000789165496826172,0.0000495796006964233
341,-0.000834941864013672,0.0000507747616342321
342,-0.000831127166748047,0.0000468005407612418
343,-0.0008087158203125,0.0000429947436479563
344,-0.000797748565673828,0.000035521167892587
345,-0.000844001770019531,0.000031738339994908
346,-0.000899791717529297,0.00003714053372658
347,-0.000833988189697266,0.0000281414731591787
348,-0.000931739807128906,0.0000407312168105931
349,-0.0008392333984375,0.0000574296861313189
350,-0.000797271728515625,0.0000445594055257476
351,-0.000847816467285156,0.0000341895900158755
352,-0.000877857208251953,0.0000509479919021343
353,-0.000903129577636719,0.0000481121367520694
354,-0.000951766967773438,0.0000572343650450553
355,-0.000944614410400391,0.0000513270405393006
356,-0.000906944274902344,0.000035224680933881
357,-0.000927448272705078,0.0000563596508678146
358,-0.000813484191894531,0.0000608915636640478
359,-0.000833511352539063,0.0000685402619511526
360,-0.000776290893554688,0.0000547854561237596
361,-0.000914096832275391,0.0000425441904772655
362,-0.00102949142456055,0.0000468612308569753
363,-0.00102663040161133,0.0000494061746416459
364,-0.00100374221801758,0.0000607831790241106
365,-0.0009613037109375,0.0000559740614996805
366,-0.000890731811523438,0.0000439363460532739
367,-0.0008087158203125,0.0000566393431002564
368,-0.000930309295654297,0.0000601306592920639
369,-0.000986099243164063,0.0000807672628511473
370,-0.00104427337646484,0.0000773784918142414
371,-0.00110626220703125,0.0000595445329818283
372,-0.000956535339355469,0.0000494395288308328
373,-0.00111484527587891,0.0000664790352636837
374,-0.00115537643432617,0.000081739681017847
375,-0.00104713439941406,0.0000995254077962455
376,-0.00108432769775391,0.0000777317698964101
377,-0.00102758407592773,0.0000643518201051655
378,-0.00113821029663086,0.0000707006568635965
379,-0.00109100341796875,0.0000841816805637617
380,-0.000998020172119141,0.0000602656901121398
381,-0.0010833740234375,0.0000658035278320313
382,-0.00104808807373047,0.0000687472851664924
383,-0.0011754035949707,0.0000603702960377003
384,-0.000992298126220703,0.0000585908504106394
385,-0.00104618072509766,0.0000507602057730532
386,-0.00116586685180664,0.0000512960218639497
387,-0.00124835968017578,0.0000890626635662363
388,-0.00129508972167969,0.000079180816658277
389,-0.00114297866821289,0.0000493808564353732
390,-0.00121879577636719,0.0000719234210115799
391,-0.00113916397094727,0.0000728469231414038
392,-0.00116777420043945,0.0000978248600921808
393,-0.00115966796875,0.0000607251699737295
394,-0.00126791000366211,0.0000826250240858243
395,-0.00124549865722656,0.0000724917953070827
396,-0.00123071670532227,0.000062192070177514
397,-0.00119304656982422,0.0000403505396051915
398,-0.00114774703979492,0.0000489658596120693
399,-0.00114727020263672,0.0000517011114823525
400,-0.00123357772827148,0.0000458198082951586
401,-0.00118207931518555,0.0000708243648326841
402,-0.00128364562988281,0.0000596437326057574
403,-0.00121831893920898,0.000047487810152143
404,-0.00128173828125,0.0000489635377998102
405,-0.00135707855224609,0.000056289005740921
406,-0.00124263763427734,0.0000726281067948734
407,-0.00134658813476562,0.0000786607896593765
408,-0.00136613845825195,0.0000937830928978945
409,-0.00126314163208008,0.0000791061204683218
410,-0.00125741958618164,0.0000610705362535432
411,-0.00141096115112305,0.0000716779992069761
412,-0.0013575553894043,0.0000836275045023043
413,-0.00132846832275391,0.0000714858262565849
414,-0.00130462646484375,0.0000649059277617399
415,-0.0012202262878418,0.0000481487486319135
416,-0.00124263763427734,0.0000410481744036452
417,-0.00136184692382812,0.0000485145194900518
418,-0.00143766403198242,0.0000428411053566288
419,-0.00139856338500977,0.0000386730809950115
420,-0.00127935409545898,0.0000456445504752356
421,-0.00130081176757812,0.0000465313423877732
422,-0.00129127502441406,0.0000438806787833895
423,-0.00146579742431641,0.0000430700375098932
424,-0.00127458572387695,0.0000540963297257043
425,-0.00134992599487305,0.0000547698904519861
426,-0.00132179260253906,0.0000537770004552362
427,-0.00131750106811523,0.0000733818148829945
428,-0.00135469436645508,0.0000795075023169055
429,-0.0012965202331543,0.0000515712117528713
430,-0.00129318237304687,0.0000582756657312477
431,-0.00140047073364258,0.0000741232587883875
432,-0.00128793716430664,0.0000690130160151647
433,-0.00136423110961914,0.0000753085757837747
434,-0.00140857696533203,0.0000637037311255063
435,-0.00138521194458008,0.0000531026206777685
436,-0.00128746032714844,0.0000736107469021179
437,-0.00139665603637695,0.0000543719829334273
438,-0.0013880729675293,0.0000678065121587713
439,-0.00123977661132812,0.0000531154644609235
440,-0.00139093399047852,0.0000475093514597386
441,-0.00135278701782227,0.0000429596936692274
442,-0.00131893157958984,0.0000478883168478538
443,-0.00134849548339844,0.0000627416962071371
444,-0.00148344039916992,0.000076025251264083
445,-0.00130033493041992,0.0000634444337698079
446,-0.00136184692382812,0.0000478800071288256
447,-0.00141239166259766,0.0000448125462511853
448,-0.00135135650634766,0.0000367930159156618
449,-0.00139904022216797,0.0000583575437350539
450,-0.00139379501342773,0.0000562445548159259
451,-0.00143957138061523,0.0000486397275176047
452,-0.00140666961669922,0.0000424418555235294
453,-0.00144100189208984,0.0000488519610399845
454,-0.00145864486694336,0.0000642811154525951
455,-0.0014195442199707,0.000057512768525871
456,-0.00144767761230469,0.0000611003140507676
457,-0.00139284133911133,0.0000602968081272739
458,-0.00135993957519531,0.0000784393501853111
459,-0.00143957138061523,0.0000594843604424522
460,-0.0013270378112793,0.0000589574004119789
461,-0.00136280059814453,0.0000419345681494153
462,-0.00130558013916016,0.0000435647571888638
463,-0.00132465362548828,0.0000494786051086455
464,-0.00140285491943359,0.00004839603527915
465,-0.00141191482543945,0.0000422068229517321
466,-0.00147151947021484,0.0000555377132606769
467,-0.00145053863525391,0.0000774416429544899
468,-0.00145483016967773,0.0000610025512510883
469,-0.00133562088012695,0.0000499633423891081
470,-0.00131845474243164,0.0000580743809941136
471,-0.00152111053466797,0.0000393744511835997
472,-0.00137805938720703,0.0000695986262913473
473,-0.00141286849975586,0.0000907094182923674
474,-0.00141716003417969,0.0000660053558066902
475,-0.00135707855224609,0.0000425689012057358
476,-0.00137710571289062,0.0000390970123741698
477,-0.00141143798828125,0.0000529933228378761
478,-0.00140190124511719,0.0000715382882579411
479,-0.00133609771728516,0.0000959071147849862
480,-0.00150823593139648,0.0000604220607043012
481,-0.00155973434448242,0.0000549812060163996
482,-0.00132942199707031,0.0000552452427406605
483,-0.00145053863525391,0.000050510989023662
484,-0.00142002105712891,0.0000502243323038467
485,-0.00117921829223633,0.0000444533982196764
486,-0.00185585021972656,0.0000425027511038577
487,-0.00134515762329102,0.0000540795146094024
488,-0.00170040130615234,0.0000464065702994799
489,-0.00136327743530273,0.0000389849007960957
490,-0.00139045715332031,0.0000460228147073973
491,-0.00146722793579102,0.0000469569613328071
492,-0.00151968002319336,0.0000650825952143272
493,-0.00142908096313477,0.0000633458019463181
494,-0.00136137008666992,0.0000588724946101226
495,-0.00147199630737305,0.0000736231013262224
496,-0.00154209136962891,0.0000841681745423101
497,-0.00140905380249023,0.0000803834877866454
498,-0.00148916244506836,0.0000732763900966193
499,-0.00148487091064453,0.0000652169607758679
500,-0.00146102905273437,0.0000576036260367419
501,-0.0015559196472168,0.0000663677846600766
502,-0.00143527984619141,0.000060445575443512
503,-0.00147247314453125,0.0000525224820178465
504,-0.00139617919921875,0.0000525387135346959
505,-0.00142812728881836,0.0000726750514748413
506,-0.00143194198608398,0.0000734607841842821
507,-0.00148534774780273,0.0000527568115137809
508,-0.00144338607788086,0.000067025734456307
509,-0.00154972076416016,0.0000675242498193289
510,-0.00150728225708008,0.0000876810054349662
511,-0.00137853622436523,0.0000746109220950703
512,-0.00152444839477539,0.000052722321480503
513,-0.00145673751831055,0.0000705187184768621
514,-0.00157308578491211,0.0000655421303449086
515,-0.00152349472045898,0.000072275049772607
516,-0.00155305862426758,0.0000626709890587853
517,-0.0014958381652832,0.0000600852662363049
518,-0.00149202346801758,0.0000760895255459713
519,-0.00149965286254883,0.0000627724923468171
520,-0.00149774551391602,0.0000531304449504023
521,-0.00149679183959961,0.0000640507863029193
522,-0.00147676467895508,0.0000499405831557543
523,-0.00144767761230469,0.0000545056368033736
524,-0.00146341323852539,0.0000650249249791366
525,-0.00146675109863281,0.0000638694849762156
526,-0.0014805793762207,0.0000493290287213672
527,-0.00141668319702148,0.0000473151266342389
528,-0.00150346755981445,0.0000571110792599226
529,-0.00141334533691406,0.0000546909562949462
530,-0.00144147872924805,0.000053875213724593
531,-0.00144338607788086,0.0000609661994261617
532,-0.0014500617980957,0.0000652692361155269
533,-0.00149631500244141,0.000065451871012416
534,-0.00141477584838867,0.0000632308366937667
535,-0.00148296356201172,0.0000678266288064129
536,-0.0015106201171875,0.0000702133607724353
537,-0.00155878067016602,0.0000482242465201207
538,-0.00145387649536133,0.0000487681109449219
539,-0.00155305862426758,0.0000418307418388947
540,-0.00145435333251953,0.0000580234608782339
541,-0.00147533416748047,0.0000606792848778723
542,-0.00148916244506836,0.0000548424924557872
543,-0.00156545639038086,0.0000687257838076967
544,-0.00151395797729492,0.0000583049210749124
545,-0.00157690048217773,0.0000388410135882915
546,-0.00151777267456055,0.0000358802139118426
547,-0.00152921676635742,0.0000350110194697964
548,-0.00158023834228516,0.000030568757950771
549,-0.00147533416748047,0.0000546992705175991
550,-0.00159454345703125,0.0000482336754470894
551,-0.00155258178710937,0.0000503780206568039
552,-0.00150299072265625,0.0000460586190835695
553,-0.00150251388549805,0.0000443573905955705
554,-0.00158309936523437,0.0000425555458370173
555,-0.00156259536743164,0.0000468939708496649
556,-0.00155258178710937,0.0000454323477895834
557,-0.00148439407348633,0.0000531486298682195
558,-0.00152301788330078,0.0000513026703017799
559,-0.00153112411499023,0.0000543772099532655
560,-0.00149679183959961,0.0000491732178274012
561,-0.00154256820678711,0.0000531240252578944
562,-0.00159263610839844,0.0000408232207715311
563,-0.00155544281005859,0.0000410807042607418
564,-0.00150346755981445,0.0000479286578468767
565,-0.00155735015869141,0.0000380350497568698
566,-0.00154638290405273,0.0000306198522316841
567,-0.00153064727783203,0.000042339273224684
568,-0.00155401229858398,0.0000396291556342853
569,-0.00160694122314453,0.0000296248876031867
570,-0.00158834457397461,0.0000350767130906274
571,-0.00157785415649414,0.0000367435442134132
572,-0.00162935256958008,0.0000381648498606944
573,-0.00162410736083984,0.000046005519862983
574,-0.00158262252807617,0.0000263401281110323
575,-0.00169229507446289,0.0000275391520283559
576,-0.00164699554443359,0.0000322262201101364
577,-0.00161552429199219,0.0000320342666639049
578,-0.0016789436340332,0.0000286186722378232
579,-0.00165271759033203,0.0000307319606333915
580,-0.00164127349853516,0.000031409781561612
581,-0.00158071517944336,0.0000199856071581572
582,-0.00172805786132812,0.0000176631000794749
583,-0.00177669525146484,0.000021840365138213
584,-0.00162553787231445,0.0000285191875545197
585,-0.00160741806030273,0.000026762950124297
586,-0.00168371200561523,0.0000450642650247536
587,-0.00160980224609375,0.0000329923419563633
588,-0.00162887573242187,0.0000383468695268628
589,-0.00170803070068359,0.0000362019594118162
590,-0.00168561935424805,0.0000396155266445878
591,-0.00165224075317383,0.000027048690248466
592,-0.0015263557434082,0.0000252588703883152
593,-0.00160932540893555,0.0000258862636013897
594,-0.0016179084777832,0.0000347944124091425
595,-0.00163459777832031,0.0000244898940871614
596,-0.0016021728515625,0.0000328334499968435
597,-0.00165224075317383,0.0000343943075219182
598,-0.00157451629638672,0.0000426809213142396
599,-0.00159978866577148,0.0000366001640552854
600,-0.00161027908325195,0.0000265363198813944
601,-0.00163698196411133,0.0000310045005822562
602,-0.00164270401000977,0.0000335535505417409
603,-0.00168704986572266,0.000025100845695976
604,-0.00170135498046875,0.0000200335458385862
605,-0.00159168243408203,0.0000233984484262925
606,-0.00165176391601562,0.000031112482700368
607,-0.00168609619140625,0.0000225239320131435
