Wavelength (nm),Absorbance (AU),Std.Dev.
190,0.0269436836242676,0.0000623472561976667
191,0.0261344909667969,0.0000620896180302311
192,0.024315357208252,0.0000368022844562192
193,0.0226550102233887,0.0000353945208792738
194,0.020726203918457,0.0000284713114321162
195,0.0188436508178711,0.0000311563005487818
196,0.0171642303466797,0.0000294603757762227
197,0.015500545501709,0.0000283181661055028
198,0.0139431953430176,0.0000291977597490795
199,0.012519359588623,0.0000280560019011091
200,0.0112228393554687,0.0000282820113941682
201,0.0100412368774414,0.0000344595272747941
202,0.00908994674682617,0.0000276251935724581
203,0.00825643539428711,0.0000429146819593402
204,0.00762224197387695,0.0000512594400420253
205,0.0071263313293457,0.0000523294836607487
206,0.00652503967285156,0.0000462986536007374
207,0.00613880157470703,0.0000396155266445878
208,0.00580406188964844,0.000023321188470149
209,0.00543785095214844,0.0000241856817515476
210,0.00511884689331055,0.0000355931071438113
211,0.00483512878417969,0.0000527029109178471
212,0.00460386276245117,0.0000454060656970135
213,0.00443172454833984,0.0000413393341096749
214,0.00425338745117188,0.0000384386652532184
215,0.00404214859008789,0.0000449101123135891
216,0.00382757186889648,0.000043560842604471
217,0.00363063812255859,0.0000342327901760055
218,0.003448486328125,0.0000397043893702798
219,0.00327301025390625,0.0000369533415443474
220,0.00315475463867187,0.000035521167892587
221,0.00291252136230469,0.0000359822532839819
222,0.00272130966186523,0.000039002393928246
223,0.00254201889038086,0.0000450667877255154
224,0.00243234634399414,0.0000396155266445878
225,0.00232124328613281,0.0000320945414856904
226,0.00223493576049805,0.0000392008288877044
227,0.00220632553100586,0.0000280352269937019
228,0.00207662582397461,0.0000241380414143998
229,0.00213289260864258,0.0000373313554563778
230,0.00210189819335937,0.0000376361681709559
231,0.00209379196166992,0.000035568344495719
232,0.0020594596862793,0.0000354394602065205
233,0.00207042694091797,0.0000435321248962375
234,0.00205469131469727,0.0000373374456485887
235,0.00198984146118164,0.000034359583325764
236,0.00197315216064453,0.0000284038491034481
237,0.00189018249511719,0.0000367002017692934
238,0.00183248519897461,0.0000266117217383126
239,0.00179481506347656,0.0000250373565536977
240,0.00176382064819336,0.0000348768163713724
241,0.00168275833129883,0.0000447223941223677
242,0.00166511535644531,0.0000355763343299271
243,0.00162506103515625,0.0000392261966693588
244,0.00155353546142578,0.0000442303414356431
245,0.00152254104614258,0.0000397901966007971
246,0.00146865844726562,0.0000327181182830972
247,0.00139570236206055,0.0000344710723341519
248,0.00132274627685547,0.0000403181255660841
249,0.00125837326049805,0.0000344298222028998
250,0.00120306015014648,0.0000316980168430715
251,0.00109386444091797,0.0000371650135866889
252,0.000986576080322266,0.0000259427461790761
253,0.000947952270507813,0.0000206834129279102
254,0.000867843627929688,0.0000322544299591623
255,0.000803947448730469,0.000047363157431942
256,0.000742435455322266,0.0000421239143855243
257,0.000679492950439453,0.0000364827171771213
258,0.000627040863037109,0.000030661593313768
259,0.000688552856445313,0.000044284285595433
260,0.000596046447753906,0.0000626401430164703
261,0.000544548034667969,0.0000607626015065781
262,0.000514984130859375,0.0000407165606488989
263,0.000473499298095703,0.0000331933123954064
264,0.000484943389892578,0.000050080388646421
265,0.000559329986572266,0.0000574613507320259
266,0.000550270080566406,0.0000656166740866454
267,0.000496864318847656,0.0000503464172890301
268,0.000469684600830078,0.0000452455399664225
269,0.000464439392089844,0.0000449227676840642
270,0.000518798828125,0.0000476849078983072
271,0.000659942626953125,0.0000546701652064569
272,0.000594615936279297,0.0000496013795688537
273,0.000638008117675781,0.0000522642674294519
274,0.000643253326416016,0.0000507646849440986
275,0.000690937042236328,0.0000514597659443725
276,0.000734329223632813,0.0000428178793089714
277,0.000736713409423828,0.0000352077326037568
278,0.000803470611572266,0.0000494015722965366
279,0.000750541687011719,0.0000431017008389336
280,0.000706195831298828,0.0000342974883906324
281,0.000761508941650391,0.0000230983187575967
282,0.000768184661865234,0.0000241862693174573
283,0.000710487365722656,0.0000221761321757037
284,0.000645637512207031,0.0000354947536353043
285,0.000670909881591797,0.000031031073386238
286,0.000644683837890625,0.0000270649721438948
287,0.000658988952636719,0.0000359980474438523
288,0.000555515289306641,0.0000398665522882051
289,0.000507831573486328,0.0000382934678026457
290,0.000471115112304688,0.0000315470216885054
291,0.000428676605224609,0.00003524968500396
292,0.000415325164794922,0.0000278480657051438
293,0.000329971313476562,0.0000301314302024452
294,0.000293731689453125,0.0000299829729894098
295,0.000314235687255859,0.0000306847582687305
296,0.000272750854492187,0.0000329380250224172
297,0.000247955322265625,0.0000375870500620429
298,0.000237941741943359,0.0000399263927563272
299,0.000195503234863281,0.0000439984030701533
300,0.00019073486328125,0.0000297168459583463
301,0.000161647796630859,0.0000363343969681935
302,0.000117778778076172,0.0000363383078876352
303,0.0000710487365722656,0.0000366575834155704
304,0.000135898590087891,0.0000425228074562617
305,0.000144481658935547,0.000063095845214527
306,0.0000863075256347656,0.0000532725494982613
307,0.0000982284545898438,0.0000505436141410805
308,0.0000538825988769531,0.0000483125704683833
309,0.0000448226928710938,0.0000471888131918286
310,0.0000476837158203125,0.0000524585893242416
311,0.0000352859497070312,0.0000581223225869185
312,-0.00000429153442382813,0.0000401669859153797
313,0.00000762939453125,0.0000392385122458006
314,-0.0000362396240234375,0.0000512727455425848
315,-0.000118255615234375,0.0000511750915363632
316,-0.0000424385070800781,0.0000541761302554821
317,-0.000112056732177734,0.0000649409495782212
318,-0.000109195709228516,0.0000532533394912067
319,-0.000162124633789062,0.0000456358321960089
320,-0.0000815391540527344,0.0000653371315290676
321,-0.000126838684082031,0.0000478918777146355
322,-0.000185012817382812,0.0000406515912741606
323,-0.000197410583496094,0.0000360682475877114
324,-0.000281810760498047,0.0000321157879434611
325,-0.000184535980224609,0.0000417593391208705
326,-0.000292301177978516,0.0000387926883693439
327,-0.0003814697265625,0.0000525051628691071
328,-0.000392913818359375,0.0000583575437350539
329,-0.000293731689453125,0.000052789125454323
330,-0.000296592712402344,0.0000650091878542053
331,-0.00034332275390625,0.0000432964463575445
332,-0.000385761260986328,0.0000386370530206762
333,-0.000374794006347656,0.0000430871913681315
334,-0.000343799591064453,0.0000509703013098252
335,-0.000374317169189453,0.0000584675082712721
336,-0.000435352325439453,0.0000402383889194294
337,-0.000432491302490234,0.0000513812781621027
338,-0.000413894653320313,0.0000558398504492156
339,-0.000435352325439453,0.0000371932983398437
340,-0.000423431396484375,0.0000352778941057786
341,-0.000388145446777344,0.0000345130966768882
342,-0.000484943389892578,0.00004852037752882
343,-0.000498771667480469,0.00003304226908158
344,-0.00057220458984375,0.0000349500819441086
345,-0.000546932220458984,0.0000434078984563646
346,-0.000518798828125,0.0000464249401671817
347,-0.0004730224609375,0.0000452781928154592
348,-0.000569820404052734,0.0000465667557674153
349,-0.000498771667480469,0.0000455460616069746
350,-0.000614643096923828,0.0000367961056885859
351,-0.000613212585449219,0.0000502774983142572
352,-0.000597953796386719,0.0000609335575290846
353,-0.000648975372314453,0.0000720024108886719
354,-0.00067901611328125,0.0000668882038306941
355,-0.000642776489257813,0.0000587952011188088
356,-0.000657081604003906,0.0000480908654504245
357,-0.000623703002929688,0.0000546295998249131
358,-0.000497817993164063,0.0000368848259724047
359,-0.000581264495849609,0.0000512361471017273
360,-0.000605106353759766,0.0000569326394108072
361,-0.000680923461914063,0.0000536807253651607
362,-0.000637054443359375,0.0000473907530979465
363,-0.000718593597412109,0.0000472502076098835
364,-0.000649452209472656,0.000030744905468002
365,-0.000669479370117188,0.0000517373810136873
366,-0.000495433807373047,0.0000759594259328456
367,-0.000757694244384766,0.0000628539387057498
368,-0.000653266906738281,0.0000594365610997263
369,-0.000696182250976563,0.0000467312579093964
370,-0.000644683837890625,0.0000393282268504771
371,-0.000537395477294922,0.0000479665948531899
372,-0.000561714172363281,0.0000697112441808938
373,-0.000651836395263672,0.0000639157478770964
374,-0.000422954559326172,0.0000505391153770181
375,-0.000464916229248047,0.0000461153552129933
376,-0.000558853149414063,0.0000708307853172257
377,-0.000426292419433594,0.0000425782474713057
378,-0.000248908996582031,0.0000418361770498111
379,-0.000431060791015625,0.0000594595095797705
380,-0.000549793243408203,0.0000570114610447847
381,-0.000607013702392578,0.0000691150746754054
382,-0.000418663024902344,0.0000854164299044536
383,-0.000432491302490234,0.000104750173410546
384,-0.000434398651123047,0.0000786636801655476
385,-0.000368118286132812,0.0000800916108690821
386,-0.000365257263183594,0.000074449231603017
387,-0.000401020050048828,0.0000777229940826766
388,-0.000386238098144531,0.0000707633411752604
389,-0.000631332397460938,0.0000662700727416685
390,-0.000376701354980469,0.0000729249127180949
391,-0.000388622283935547,0.0000731910089658733
392,-0.000280857086181641,0.000071270806852468
393,-0.000511646270751953,0.0000613176246859684
394,-0.000510215759277344,0.0000590460350269923
395,-0.000408172607421875,0.0000725889630365489
396,-0.000513076782226563,0.000102396824508327
397,-0.000293254852294922,0.000101428542921135
398,-0.000411510467529297,0.0000801979997086131
399,-0.000660896301269531,0.0000758755656468052
400,-0.000487327575683594,0.0000578851636273855
401,-0.000494956970214844,0.0000526716232987042
402,-0.000388145446777344,0.0000899416512241093
403,-0.00045013427734375,0.000107338152033932
404,-0.000336647033691406,0.0000792310532891757
405,-0.000445365905761719,0.0000767826284426859
406,-0.000804901123046875,0.0000749393248553281
407,-0.000514030456542969,0.0000608187056102849
408,-0.000313282012939453,0.0000838420213854781
409,-0.000637054443359375,0.0000813926250204158
410,-0.000567436218261719,0.0000954913288208693
411,-0.0005035400390625,0.000101459922048151
412,-0.000435352325439453,0.0000859048311225017
413,-0.000712394714355469,0.0000525159880064032
414,-0.000761508941650391,0.0000500497330897787
415,-0.000638008117675781,0.0000637518976074263
416,-0.000708580017089844,0.0000744629736806063
417,-0.000713825225830078,0.0000701161437219244
418,-0.000677585601806641,0.0000797145664707023
419,-0.000592231750488281,0.0000686032631002306
420,-0.000521659851074219,0.0000591479928417465
421,-0.000341892242431641,0.0000715287525742174
422,-0.000712394714355469,0.0000628268016510033
423,-0.000751018524169922,0.0000628575560945305
424,-0.000803947448730469,0.0000672948846035332
425,-0.000731945037841797,0.0000613083536620587
426,-0.000602245330810547,0.0000446817027118405
427,-0.000387668609619141,0.0000651245051270458
428,-0.000903129577636719,0.0000508608917098162
429,-0.000459194183349609,0.0000494900922597089
430,-0.000807762145996094,0.0000508452425482419
431,-0.00100803375244141,0.0000463857423215292
432,-0.000865459442138672,0.0000380073914325847
433,-0.000530242919921875,0.000054599416285673
434,-0.000811100006103516,0.000055580684067484
435,-0.0008392333984375,0.0000590931883338271
436,-0.000671863555908203,0.0000611300773425776
437,-0.0007171630859375,0.0000519500899005328
438,-0.000682353973388672,0.0000598701286663461
439,-0.000753879547119141,0.0000598530362090834
440,-0.000618457794189453,0.0000545004221006834
441,-0.000488758087158203,0.0000693416982384916
442,-0.00106716156005859,0.0000599668938996546
443,-0.000566482543945313,0.0000587323252574702
444,-0.000780582427978516,0.0000594528171881095
445,-0.000765800476074219,0.0000706266500116891
446,-0.000703334808349609,0.0000557277609997153
447,-0.000831127166748047,0.0000761641948791109
448,-0.000739097595214844,0.0000674079782374279
449,-0.000681877136230469,0.0000583741003102403
450,-0.000780582427978516,0.0000623581959122468
451,-0.000738620758056641,0.0000555141675336807
452,-0.000882148742675781,0.0000596808899549783
453,-0.000845909118652344,0.0000639121903813167
454,-0.000778675079345703,0.0000529235545003116
455,-0.000704288482666016,0.0000625111508945995
456,-0.000606536865234375,0.0000722404360367036
457,-0.000613689422607422,0.0000642970307783248
458,-0.000884532928466797,0.0000655924133321594
459,-0.000771045684814453,0.0000796203833514556
460,-0.000952720642089844,0.0000581144980895133
461,-0.000826358795166016,0.0000341080256011001
462,-0.000789165496826172,0.0000553521478950687
463,-0.000592231750488281,0.0000696231239371968
464,-0.000854015350341797,0.0000649777021700935
465,-0.000829219818115234,0.0000599991142972542
466,-0.00115823745727539,0.0000710263312938166
467,-0.00075531005859375,0.0000821005030953807
468,-0.000870704650878906,0.0000728921672592978
469,-0.000818729400634766,0.0000773814302193848
470,-0.000663280487060547,0.0000873848815075326
471,-0.000848770141601563,0.0000726234106578671
472,-0.000877857208251953,0.0000638000277255797
473,-0.000853061676025391,0.0000567205766956227
474,-0.000802516937255859,0.0000459226615053611
475,-0.000675201416015625,0.0000591047303480002
476,-0.000948905944824219,0.000061323186627536
477,-0.000813961029052734,0.0000567105541527042
478,-0.000742435455322266,0.0000589631849916941
479,-0.000787734985351563,0.000059928965371209
480,-0.000849723815917969,0.0000576499871114793
481,-0.000784397125244141,0.0000772432043438505
482,-0.000802040100097656,0.0000658190750331536
483,-0.000723838806152344,0.000056409049814638
484,-0.00114917755126953,0.0000646373830400751
485,0.00290393829345703,0.0000706346979907952
486,-0.00296831130981445,0.0000501212335555955
487,-0.000946521759033203,0.000048864758800869
488,-0.00114536285400391,0.0000559679679794049
489,-0.000878810882568359,0.0000664756149444232
490,-0.000939369201660156,0.0000744034063468627
491,-0.000933647155761719,0.0000543615273859711
492,-0.000847339630126953,0.0000608654195253477
493,-0.000833034515380859,0.000103040968301434
494,-0.00102329254150391,0.0000800830936562256
495,-0.000806808471679688,0.0000785841525056941
496,-0.000973701477050781,0.0000649409495782212
497,-0.00115299224853516,0.0000857113962876048
498,-0.000795841217041016,0.0000952672432108333
499,-0.000921726226806641,0.0000931481586233122
500,-0.0010981559753418,0.0000699684400709937
501,-0.000823497772216797,0.0000723017854006064
502,-0.00104045867919922,0.0000846637768963084
503,-0.000893115997314453,0.0000770840856491013
504,-0.000921726226806641,0.0000704767900805464
505,-0.000835418701171875,0.0000763103348294097
506,-0.000970840454101563,0.0000738281907385327
507,-0.00102710723876953,0.0000587952011188088
508,-0.000980377197265625,0.0000597665495173778
509,-0.000964164733886719,0.0000471526614871488
510,-0.000894546508789063,0.0000527083034578341
511,-0.000977516174316406,0.0000849104933128376
512,-0.000932693481445313,0.0000770472057797809
513,-0.00102806091308594,0.0000602071824681551
514,-0.000975608825683594,0.0000619209357891111
515,-0.000980377197265625,0.0000574346348759214
516,-0.000993728637695313,0.0000600351048661397
517,-0.00103616714477539,0.0000783915067223754
518,-0.000980854034423828,0.0000513502922495594
519,-0.00104331970214844,0.000056441287014006
520,-0.000995635986328125,0.0000650930752222126
521,-0.000941276550292969,0.0000642174147059339
522,-0.000962257385253906,0.0000553973148939306
523,-0.000989913940429688,0.0000678115418801543
524,-0.00102615356445312,0.0000907795764077168
525,-0.000971794128417969,0.0000753115949501232
526,-0.000936031341552734,0.0000745148653244688
527,-0.00100088119506836,0.0000650161826022193
528,-0.000927925109863281,0.0000626328829164208
529,-0.000892162322998047,0.0000605714588478104
530,-0.00104379653930664,0.0000571170508277475
531,-0.000970840454101563,0.000049322114244699
532,-0.00100135803222656,0.0000627326356418369
533,-0.000977039337158203,0.0000755241419823418
534,-0.000932693481445313,0.0000541855725354864
535,-0.000969886779785156,0.0000514686021351987
536,-0.00115156173706055,0.0000608224440438017
537,-0.000919818878173828,0.0000583624138035546
538,-0.000918865203857422,0.0000475595765678088
539,-0.000986099243164063,0.0000661842417605117
540,-0.0010223388671875,0.000066185959470943
541,-0.000941753387451172,0.000053501469140154
542,-0.00104570388793945,0.0000609904363835124
543,-0.00104808807373047,0.0000546743240566554
544,-0.00104808807373047,0.000054546294374709
545,-0.00111961364746094,0.0000399520112336224
546,-0.00110197067260742,0.0000369010040352652
547,-0.000885963439941406,0.0000477444738494009
548,-0.00110006332397461,0.000054000623955279
549,-0.00112199783325195,0.0000591422263377104
550,-0.00107383728027344,0.0000452832142408728
551,-0.00103664398193359,0.0000527858949504419
552,-0.00102806091308594,0.0000610593658355758
553,-0.00108194351196289,0.0000517197989627947
554,-0.00104951858520508,0.0000400727660989084
555,-0.000957489013671875,0.0000353832771293064
556,-0.00105428695678711,0.0000416898593795669
557,-0.00106716156005859,0.0000386818990572212
558,-0.00111532211303711,0.000060999755725974
559,-0.00101280212402344,0.0000675932439993547
560,-0.000959873199462891,0.0000667895511178266
561,-0.00115585327148437,0.000047801587331037
562,-0.00115966796875,0.000060790660030788
563,-0.00100898742675781,0.0000513724269513286
564,-0.00105714797973633,0.00005091227651611
565,-0.00110769271850586,0.0000470971749767059
566,-0.000960350036621094,0.0000405591979929557
567,-0.0009613037109375,0.0000402489825227194
568,-0.00102996826171875,0.0000347060808167751
569,-0.000844001770019531,0.000036187039673016
570,-0.000884532928466797,0.000051245021851216
571,-0.000905036926269531,0.00005104385317454
572,-0.0012974739074707,0.0000398123334095701
573,-0.000682353973388672,0.0000379212975825026
574,-0.000991344451904297,0.000040179720495118
575,-0.00120162963867187,0.0000452392578703998
576,-0.000668048858642578,0.0000496048174640998
577,-0.000817775726318359,0.0000518175234192944
578,-0.0012822151184082,0.0000479808134973004
579,-0.00100946426391602,0.0000537304714022008
580,-0.000659942626953125,0.0000480814085179403
581,-0.000592708587646484,0.0000447300196407594
582,-0.00139236450195312,0.0000500610891884636
583,-0.00131750106811523,0.0000525614292373504
584,-0.000631332397460938,0.0000479452589807488
585,-0.000818252563476563,0.0000508921755967836
586,-0.00135183334350586,0.0000316055279918083
587,-0.000624656677246094,0.0000322852562580915
588,-0.00129938125610352,0.0000420307003433941
589,-0.00115346908569336,0.000050198294374407
590,-0.000939846038818359,0.0000422196154487131
591,-0.00120925903320312,0.0000419406675751317
592,-0.000512599945068359,0.0000408900027191465
593,-0.00103998184204102,0.0000424826852827202
594,-0.000904560089111328,0.0000382630251833147
595,-0.00102901458740234,0.0000280954824840331
596,-0.0012354850769043,0.0000427972971405083
597,-0.000850200653076172,0.0000437665343472785
598,-0.000982761383056641,0.0000355539582694621
599,-0.000917434692382813,0.0000427740473052624
600,-0.000998020172119141,0.0000473499538194916
601,-0.00113582611083984,0.0000451323284515456
602,-0.000973224639892578,0.0000530812074664144
603,-0.00102758407592773,0.0000420955667448109
