Wavelength (nm),Absorbance (AU),Std.Dev.
190,0.0269436836242676,0.0000623472561976667
191,0.0261344909667969,0.0000620896180302311
192,0.024315357208252,0.0000368022844562192
193,0.0226550102233887,0.0000353945208792738
194,0.020726203918457,0.0000284713114321162
195,0.0188436508178711,0.0000311563005487818
196,0.0171642303466797,0.0000294603757762227
197,0.015500545501709,0.0000283181661055028
198,0.0139431953430176,0.0000291977597490795
199,0.012519359588623,0.0000280560019011091
200,0.0112228393554687,0.0000282820113941682
201,0.0100412368774414,0.0000344595272747941
202,0.00908994674682617,0.0000276251935724581
203,0.00825643539428711,0.0000429146819593402
204,0.00762224197387695,0.0000512594400420253
205,0.0071263313293457,0.0000523294836607487
206,0.00652503967285156,0.0000462986536007374
207,0.00613880157470703,0.0000396155266445878
208,0.00580406188964844,0.000023321188470149
209,0.00543785095214844,0.0000241856817515476
210,0.00511884689331055,0.0000355931071438113
211,0.00483512878417969,0.0000527029109178471
212,0.00460386276245117,0.0000454060656970135
213,0.00443172454833984,0.0000413393341096749
214,0.00425338745117188,0.0000384386652532184
215,0.00404214859008789,0.0000449101123135891
216,0.00382757186889648,0.000043560842604471
217,0.00363063812255859,0.0000342327901760055
218,0.003448486328125,0.0000397043893702798
219,0.00327301025390625,0.0000369533415443474
220,0.00315475463867187,0.000035521167892587
221,0.00291252136230469,0.0000359822532839819
222,0.00272130966186523,0.000039002393928246
223,0.00254201889038086,0.0000450667877255154
224,0.00243234634399414,0.0000396155266445878
225,0.00232124328613281,0.0000320945414856904
226,0.00223493576049805,0.0000392008288877044
227,0.00220632553100586,0.0000280352269937019
228,0.00207662582397461,0.0000241380414143998
229,0.00213289260864258,0.0000373313554563778
230,0.00210189819335937,0.0000376361681709559
231,0.00209379196166992,0.000035568344495719
232,0.0020594596862793,0.0000354394602065205
233,0.00207042694091797,0.0000435321248962375
234,0.00205469131469727,0.0000373374456485887
235,0.00198984146118164,0.000034359583325764
236,0.00197315216064453,0.0000284038491034481
237,0.00189018249511719,0.0000367002017692934
238,0.00183248519897461,0.0000266117217383126
239,0.00179481506347656,0.0000250373565536977
240,0.00176382064819336,0.0000348768163713724
241,0.00168275833129883,0.0000447223941223677
242,0.00166511535644531,0.0000355763343299271
243,0.00162506103515625,0.0000392261966693588
244,0.00155353546142578,0.0000442303414356431
245,0.00152254104614258,0.0000397901966007971
246,0.00146865844726562,0.0000327181182830972
247,0.00139570236206055,0.0000344710723341519
248,0.00132274627685547,0.0000403181255660841
249,0.00125837326049805,0.0000344298222028998
250,0.00120306015014648,0.0000316980168430715
251,0.00109386444091797,0.0000371650135866889
252,0.000986576080322266,0.0000259427461790761
253,0.000947952270507813,0.0000206834129279102
254,0.000867843627929688,0.0000322544299591623
255,0.000803947448730469,0.000047363157431942
256,0.000742435455322266,0.0000421239143855243
257,0.000679492950439453,0.0000364827171771213
258,0.000627040863037109,0.000030661593313768
259,0.000688552856445313,0.000044284285595433
260,0.000596046447753906,0.0000626401430164703
261,0.000544548034667969,0.0000607626015065781
262,0.000514984130859375,0.0000407165606488989
263,0.000473499298095703,0.0000331933123954064
264,0.000484943389892578,0.000050080388646421
265,0.000559329986572266,0.0000574613507320259
266,0.000550270080566406,0.0000656166740866454
267,0.000496864318847656,0.0000503464172890301
268,0.000469684600830078,0.0000452455399664225
269,0.000464439392089844,0.0000449227676840642
270,0.000518798828125,0.0000476849078983072
271,0.000659942626953125,0.0000546701652064569
272,0.000594615936279297,0.0000496013795688537
273,0.000638008117675781,0.0000522642674294519
274,0.000643253326416016,0.0000507646849440986
275,0.000690937042236328,0.0000514597659443725
276,0.000734329223632813,0.0000428178793089714
277,0.000736713409423828,0.0000352077326037568
278,0.000803470611572266,0.0000494015722965366
279,0.000750541687011719,0.0000431017008389336
280,0.000706195831298828,0.0000342974883906324
281,0.000761508941650391,0.0000230983187575967
282,0.000768184661865234,0.0000241862693174573
283,0.000710487365722656,0.0000221761321757037
284,0.000645637512207031,0.0000354947536353043
285,0.000670909881591797,0.000031031073386238
286,0.000644683837890625,0.0000270649721438948
287,0.000658988952636719,0.0000359980474438523
288,0.000555515289306641,0.0000398665522882051
289,0.000507831573486328,0.0000382934678026457
290,0.000471115112304688,0.0000315470216885054
291,0.000428676605224609,0.00003524968500396
292,0.000415325164794922,0.0000278480657051438
293,0.000329971313476562,0.0000301314302024452
294,0.000293731689453125,0.0000299829729894098
295,0.000314235687255859,0.0000306847582687305
296,0.000272750854492187,0.0000329380250224172
297,0.000247955322265625,0.0000375870500620429
298,0.000237941741943359,0.0000399263927563272
299,0.000195503234863281,0.0000439984030701533
300,0.00019073486328125,0.0000297168459583463
301,0.000161647796630859,0.0000363343969681935
302,0.000117778778076172,0.0000363383078876352
303,0.0000710487365722656,0.0000366575834155704
304,0.000135898590087891,0.0000425228074562617
305,0.000144481658935547,0.000063095845214527
306,0.0000863075256347656,0.0000532725494982613
307,0.0000982284545898438,0.0000505436141410805
308,0.0000538825988769531,0.0000483125704683833
309,0.0000448226928710938,0.0000471888131918286
310,0.0000476837158203125,0.0000524585893242416
311,0.0000352859497070312,0.0000581223225869185
312,-0.00000429153442382813,0.0000401669859153797
313,0.00000762939453125,0.0000392385122458006
314,-0.0000362396240234375,0.0000512727455425848
315,-0.000118255615234375,0.0000511750915363632
316,-0.0000424385070800781,0.0000541761302554821
317,-0.000112056732177734,0.0000649409495782212
318,-0.000109195709228516,0.0000532533394912067
319,-0.000162124633789062,0.0000456358321960089
320,-0.0000815391540527344,0.0000653371315290676
321,-0.000126838684082031,0.0000478918777146355
322,-0.000185012817382812,0.0000406515912741606
323,-0.000197410583496094,0.0000360682475877114
324,-0.000281810760498047,0.0000321157879434611
325,-0.000184535980224609,0.0000417593391208705
326,-0.000292301177978516,0.0000387926883693439
327,-0.0003814697265625,0.0000525051628691071
328,-0.000392913818359375,0.0000583575437350539
329,-0.000293731689453125,0.000052789125454323
330,-0.000296592712402344,0.0000650091878542053
331,-0.00034332275390625,0.0000432964463575445
332,-0.000385761260986328,0.0000386370530206762
333,-0.000374794006347656,0.0000430871913681315
334,-0.000343799591064453,0.0000509703013098252
335,-0.000374317169189453,0.0000584675082712721
336,-0.000435352325439453,0.0000402383889194294
337,-0.000432491302490234,0.0000513812781621027
338,-0.000413894653320313,0.0000558398504492156
339,-0.000435352325439453,0.0000371932983398437
340,-0.000423431396484375,0.0000352778941057786
341,-0.000388145446777344,0.0000345130966768882
342,-0.000484943389892578,0.00004852037752882
343,-0.000498771667480469,0.00003304226908158
344,-0.00057220458984375,0.0000349500819441086
345,-0.000546932220458984,0.0000434078984563646
346,-0.000518798828125,0.0000464249401671817
347,-0.0004730224609375,0.0000452781928154592
348,-0.000569820404052734,0.0000465667557674153
349,-0.000498771667480469,0.0000455460616069746
350,-0.000614643096923828,0.0000367961056885859
351,-0.000613212585449219,0.0000502774983142572
352,-0.000597953796386719,0.0000609335575290846
353,-0.000648975372314453,0.0000720024108886719
354,-0.00067901611328125,0.0000668882038306941
355,-0.000642776489257813,0.0000587952011188088
356,-0.000657081604003906,0.0000480908654504245
357,-0.000623703002929688,0.0000546295998249131
358,-0.000497817993164063,0.0000368848259724047
359,-0.000581264495849609,0.0000512361471017273
360,-0.000605106353759766,0.0000569326394108072
361,-0.000680923461914063,0.0000536807253651607
362,-0.000637054443359375,0.0000473907530979465
363,-0.000718593597412109,0.0000472502076098835
364,-0.000649452209472656,0.000030744905468002
365,-0.000669479370117188,0.0000517373810136873
366,-0.000495433807373047,0.0000759594259328456
367,-0.000757694244384766,0.0000628539387057498
368,-0.000653266906738281,0.0000594365610997263
369,-0.000696182250976563,0.0000467312579093964
370,-0.000644683837890625,0.0000393282268504771
371,-0.000537395477294922,0.0000479665948531899
372,-0.000561714172363281,0.0000697112441808938
373,-0.000651836395263672,0.0000639157478770964
374,-0.000422954559326172,0.0000505391153770181
375,-0.000464916229248047,0.0000461153552129933
376,-0.000558853149414063,0.0000708307853172257
377,-0.000426292419433594,0.0000425782474713057
378,-0.000248908996582031,0.0000418361770498111
379,-0.000431060791015625,0.0000594595095797705
380,-0.000549793243408203,0.0000570114610447847
381,-0.000607013702392578,0.0000691150746754054
382,-0.000418663024902344,0.0000854164299044536
383,-0.000432491302490234,0.000104750173410546
384,-0.000434398651123047,0.0000786636801655476
385,-0.000368118286132812,0.0000800916108690821
386,-0.000365257263183594,0.000074449231603017
387,-0.000401020050048828,0.0000777229940826766
388,-0.000386238098144531,0.0000707633411752604
389,-0.000631332397460938,0.0000662700727416685
390,-0.000376701354980469,0.0000729249127180949
391,-0.000388622283935547,0.0000731910089658733
392,-0.000280857086181641,0.000071270806852468
393,-0.000511646270751953,0.0000613176246859684
394,-0.000510215759277344,0.0000590460350269923
395,-0.000408172607421875,0.0000725889630365489
396,-0.000513076782226563,0.000102396824508327
397,-0.000293254852294922,0.000101428542921135
398,-0.000411510467529297,0.0000801979997086131
399,-0.000660896301269531,0.0000758755656468052
400,-0.000487327575683594,0.0000578851636273855
401,-0.000494956970214844,0.0000526716232987042
402,-0.000388145446777344,0.0000899416512241093
403,-0.00045013427734375,0.000107338152033932
404,-0.000336647033691406,0.0000792310532891757
405,-0.000445365905761719,0.0000767826284426859
406,-0.000804901123046875,0.0000749393248553281
407,-0.000514030456542969,0.0000608187056102849
408,-0.000313282012939453,0.0000838420213854781
409,-0.000637054443359375,0.0000813926250204158
410,-0.000567436218261719,0.0000954913288208693
411,-0.0005035400390625,0.000101459922048151
412,-0.000435352325439453,0.0000859048311225017
413,-0.000712394714355469,0.0000525159880064032
414,-0.000761508941650391,0.0000500497330897787
415,-0.000638008117675781,0.0000637518976074263
416,-0.000708580017089844,0.0000744629736806063
417,-0.000713825225830078,0.0000701161437219244
418,-0.000677585601806641,0.0000797145664707023
419,-0.000592231750488281,0.0000686032631002306
420,-0.000521659851074219,0.0000591479928417465
421,-0.000341892242431641,0.0000715287525742174
422,-0.000712394714355469,0.0000628268016510033
423,-0.000751018524169922,0.0000628575560945305
424,-0.000803947448730469,0.0000672948846035332
425,-0.000731945037841797,0.0000613083536620587
426,-0.000602245330810547,0.0000446817027118405
427,-0.000387668609619141,0.0000651245051270458
428,-0.000903129577636719,0.0000508608917098162
429,-0.000459194183349609,0.0000494900922597089
430,-0.000807762145996094,0.0000508452425482419
431,-0.00100803375244141,0.0000463857423215292
432,-0.000865459442138672,0.0000380073914325847
433,-0.000530242919921875,0.000054599416285673
434,-0.000811100006103516,0.000055580684067484
435,-0.0008392333984375,0.0000590931883338271
436,-0.000671863555908203,0.0000611300773425776
437,-0.0007171630859375,0.0000519500899005328
438,-0.000682353973388672,0.0000598701286663461
439,-0.000753879547119141,0.0000598530362090834
440,-0.000618457794189453,0.0000545004221006834
441,-0.000488758087158203,0.0000693416982384916
442,-0.00106716156005859,0.0000599668938996546
443,-0.000566482543945313,0.0000587323252574702
444,-0.000780582427978516,0.0000594528171881095
445,-0.000765800476074219,0.0000706266500116891
446,-0.000703334808349609,0.0000557277609997153
447,-0.000831127166748047,0.0000761641948791109
448,-0.000739097595214844,0.0000674079782374279
449,-0.000681877136230469,0.0000583741003102403
450,-0.000780582427978516,0.0000623581959122468
451,-0.000738620758056641,0.0000555141675336807
452,-0.000882148742675781,0.0000596808899549783
453,-0.000845909118652344,0.0000639121903813167
454,-0.000778675079345703,0.0000529235545003116
455,-0.000704288482666016,0.0000625111508945995
456,-0.000606536865234375,0.0000722404360367036
457,-0.000613689422607422,0.0000642970307783248
458,-0.000884532928466797,0.0000655924133321594
459,-0.000771045684814453,0.0000796203833514556
460,-0.000952720642089844,0.0000581144980895133
461,-0.000826358795166016,0.0000341080256011001
462,-0.000789165496826172,0.0000553521478950687
463,-0.000592231750488281,0.0000696231239371968
464,-0.000854015350341797,0.0000649777021700935
465,-0.000829219818115234,0.0000599991142972542
466,-0.00115823745727539,0.0000710263312938166
467,-0.00075531005859375,0.0000821005030953807
468,-0.000870704650878906,0.0000728921672592978
469,-0.000818729400634766,0.0000773814302193848
470,-0.000663280487060547,0.0000873848815075326
471,-0.000848770141601563,0.0000726234106578671
472,-0.000877857208251953,0.0000638000277255797
473,-0.000853061676025391,0.0000567205766956227
474,-0.000802516937255859,0.0000459226615053611
475,-0.000675201416015625,0.0000591047303480002
476,-0.000948905944824219,0.000061323186627536
477,-0.000813961029052734,0.0000567105541527042
478,-0.000742435455322266,0.0000589631849916941
479,-0.000787734985351563,0.000059928965371209
480,-0.000849723815917969,0.0000576499871114793
481,-0.000784397125244141,0.0000772432043438505
482,-0.000802040100097656,0.0000658190750331536
483,-0.000723838806152344,0.000056409049814638
484,-0.00114917755126953,0.0000646373830400751
485,0.00290393829345703,0.0000706346979907952
486,-0.00296831130981445,0.0000501212335555955
487,-0.000946521759033203,0.000048864758800869
488,-0.00114536285400391,0.0000559679679794049
489,-0.000878810882568359,0.0000664756149444232
490,-0.000939369201660156,0.0000744034063468627
491,-0.000933647155761719,0.0000543615273859711
492,-0.000847339630126953,0.0000608654195253477
493,-0.000833034515380859,0.000103040968301434
494,-0.00102329254150391,0.0000800830936562256
495,-0.000806808471679688,0.0000785841525056941
496,-0.000973701477050781,0.0000649409495782212
497,-0.00115299224853516,0.0000857113962876048
498,-0.000795841217041016,0.0000952672432108333
499,-0.000921726226806641,0.0000931481586233122
500,-0.0010981559753418,0.0000699684400709937
501,-0.000823497772216797,0.0000723017854006064
502,-0.00104045867919922,0.0000846637768963084
503,-0.000893115997314453,0.0000770840856491013
504,-0.000921726226806641,0.0000704767900805464
505,-0.000835418701171875,0.0000763103348294097
506,-0.000970840454101563,0.0000738281907385327
507,-0.00102710723876953,0.0000587952011188088
508,-0.000980377197265625,0.0000597665495173778
509,-0.000964164733886719,0.0000471526614871488
510,-0.000894546508789063,0.0000527083034578341
511,-0.000977516174316406,0.0000849104933128376
512,-0.000932693481445313,0.0000770472057797809
513,-0.00102806091308594,0.0000602071824681551
514,-0.000975608825683594,0.0000619209357891111
515,-0.000980377197265625,0.0000574346348759214
516,-0.000993728637695313,0.0000600351048661397
517,-0.00103616714477539,0.0000783915067223754
518,-0.000980854034423828,0.0000513502922495594
519,-0.00104331970214844,0.000056441287014006
520,-0.000995635986328125,0.0000650930752222126
521,-0.000941276550292969,0.0000642174147059339
522,-0.000962257385253906,0.0000553973148939306
523,-0.000989913940429688,0.0000678115418801543
524,-0.00102615356445312,0.0000907795764077168
525,-0.000971794128417969,0.0000753115949501232
526,-0.000936031341552734,0.0000745148653244688
527,-0.00100088119506836,0.0000650161826022193
528,-0.000927925109863281,0.0000626328829164208
529,-0.000892162322998047,0.0000605714588478104
530,-0.00104379653930664,0.0000571170508277475
531,-0.000970840454101563,0.000049322114244699
532,-0.00100135803222656,0.0000627326356418369
533,-0.000977039337158203,0.0000755241419823418
534,-0.000932693481445313,0.0000541855725354864
535,-0.000969886779785156,0.0000514686021351987
536,-0.00115156173706055,0.0000608224440438017
537,-0.000919818878173828,0.0000583624138035546
538,-0.000918865203857422,0.0000475595765678088
539,-0.000986099243164063,0.0000661842417605117
540,-0.0010223388671875,0.000066185959470943
541,-0.000941753387451172,0.000053501469140154
542,-0.00104570388793945,0.0000609904363835124
543,-0.00104808807373047,0.0000546743240566554
544,-0.00104808807373047,0.000054546294374709
545,-0.00111961364746094,0.0000399520112336224
546,-0.00110197067260742,0.0000369010040352652
547,-0.000885963439941406,0.0000477444738494009
548,-0.00110006332397461,0.000054000623955279
549,-0.00112199783325195,0.0000591422263377104
550,-0.00107383728027344,0.0000452832142408728
551,-0.00103664398193359,0.0000527858949504419
552,-0.00102806091308594,0.0000610593658355758
553,-0.00108194351196289,0.0000517197989627947
554,-0.00104951858520508,0.0000400727660989084
555,-0.000957489013671875,0.0000353832771293064
556,-0.00105428695678711,0.0000416898593795669
557,-0.00106716156005859,0.0000386818990572212
558,-0.00111532211303711,0.000060999755725974
559,-0.00101280212402344,0.0000675932439993547
560,-0.000959873199462891,0.0000667895511178266
561,-0.00115585327148437,0.000047801587331037
562,-0.00115966796875,0.000060790660030788
563,-0.00100898742675781,0.0000513724269513286
564,-0.00105714797973633,0.00005091227651611
565,-0.00110769271850586,0.0000470971749767059
566,-0.000960350036621094,0.0000405591979929557
567,-0.0009613037109375,0.0000402489825227194
568,-0.00102996826171875,0.0000347060808167751
569,-0.000844001770019531,0.000036187039673016
570,-0.000884532928466797,0.000051245021851216
571,-0.000905036926269531,0.00005104385317454
572,-0.0012974739074707,0.0000398123334095701
573,-0.000682353973388672,0.0000379212975825026
574,-0.000991344451904297,0.000040179720495118
575,-0.00120162963867187,0.0000452392578703998
576,-0.000668048858642578,0.0000496048174640998
577,-0.000817775726318359,0.0000518175234192944
578,-0.0012822151184082,0.0000479808134973004
579,-0.00100946426391602,0.0000537304714022008
580,-0.000659942626953125,0.0000480814085179403
581,-0.000592708587646484,0.0000447300196407594
582,-0.00139236450195312,0.0000500610891884636
583,-0.00131750106811523,0.0000525614292373504
584,-0.000631332397460938,0.0000479452589807488
585,-0.000818252563476563,0.0000508921755967836
586,-0.00135183334350586,0.0000316055279918083
587,-0.000624656677246094,0.0000322852562580915
588,-0.00129938125610352,0.0000420307003433941
589,-0.00115346908569336,0.000050198294374407
590,-0.000939846038818359,0.0000422196154487131
591,-0.00120925903320312,0.0000419406675751317
592,-0.000512599945068359,0.0000408900027191465
593,-0.00103998184204102,0.0000424826852827202
594,-0.000904560089111328,0.0000382630251833147
595,-0.00102901458740234,0.0000280954824840331
596,-0.0012354850769043,0.0000427972971405083
597,-0.000850200653076172,0.0000437665343472785
598,-0.000982761383056641,0.0000355539582694621
599,-0.000917434692382813,0.0000427740473052624
600,-0.000998020172119141,0.0000473499538194916
601,-0.00113582611083984,0.0000451323284515456
602,-0.000973224639892578,0.0000530812074664144
603,-0.00102758407592773,0.0000420955667448109
604,-0.00118637084960937,0.0000447897079521137
605,-0.000803947448730469,0.0000371734248154006
606,-0.00122976303100586,0.0000433869411112897
607,-0.00106477737426758,0.0000433633519912325
608,-0.00124788284301758,0.0000444060604003714
609,-0.00116539001464844,0.0000405563949107455
610,-0.00101566314697266,0.0000392095282617556
611,-0.00123786926269531,0.0000376610805396617
612,-0.00111722946166992,0.0000396649990196577
613,-0.00118732452392578,0.0000308040125802381
614,-0.00129365921020508,0.0000389455125202242
615,-0.00121927261352539,0.0000339334221065808
616,-0.00149059295654297,0.0000461227504323721
617,-0.00110101699829102,0.0000553213310709884
618,-0.00114154815673828,0.0000409684711540848
619,-0.0011143684387207,0.0000319578739385482
620,-0.00109672546386719,0.000042585589526684
621,-0.00138425827026367,0.0000508832393060041
622,-0.00112438201904297,0.0000567486303988054
623,-0.00129556655883789,0.000054322824362693
624,-0.00122165679931641,0.0000557940228921816
625,-0.00137901306152344,0.0000457378563218201
626,-0.00136137008666992,0.0000473187306352065
627,-0.00123977661132812,0.0000557144991644994
628,-0.00131654739379883,0.0000460980950874594
629,-0.00112676620483398,0.0000441055039678108
630,-0.00136804580688477,0.0000440797203201216
631,-0.00130462646484375,0.0000368694116936704
632,-0.00130558013916016,0.0000416079699676008
633,-0.00124979019165039,0.0000406236155009248
634,-0.00136232376098633,0.0000406879310226285
635,-0.00131845474243164,0.0000442084881812566
636,-0.00131988525390625,0.0000351398575397416
637,-0.00145578384399414,0.000038565633075227
638,-0.00137710571289062,0.0000508564210121668
639,-0.00142335891723633,0.0000629858387983642
640,-0.00133037567138672,0.0000610249108417782
641,-0.00119924545288086,0.0000478027764696203
642,-0.00118017196655273,0.0000431847066215042
643,-0.00122785568237305,0.0000528429381101991
644,-0.00120162963867187,0.0000472417856490739
645,-0.00132846832275391,0.000035471524868322
646,-0.00133800506591797,0.000059771304782494
647,-0.00137186050415039,0.0000537759434238466
648,-0.00129079818725586,0.0000515921499026373
649,-0.00135087966918945,0.0000590546986610574
650,-0.0013737678527832,0.0000501291717565591
651,-0.00130987167358398,0.0000456445504752356
652,-0.0013279914855957,0.0000448822579377343
653,-0.00127840042114258,0.0000482336754470894
654,-0.00156641006469727,0.0000531774990149732
655,0.00134420394897461,0.0000524640069769556
656,-0.000371932983398437,0.0000368347059821118
657,-0.00527763366699219,0.000039465297120206
658,-0.00111055374145508,0.0000500372384044438
659,-0.00152349472045898,0.0000575216630935678
660,-0.00140619277954102,0.0000556920488644576
661,-0.00139999389648437,0.0000456868727378978
662,-0.00138378143310547,0.0000381171586832263
663,-0.00138759613037109,0.0000446129517964496
664,-0.00145435333251953,0.0000515557782012005
665,-0.00136899948120117,0.0000604878789378068
666,-0.00141716003417969,0.0000540111493669285
667,-0.0014190673828125,0.0000481133182153086
668,-0.00148153305053711,0.0000443727657747482
669,-0.00140714645385742,0.0000549532844368677
670,-0.00143957138061523,0.0000469242652898504
671,-0.00140380859375,0.0000509189750591975
672,-0.00140571594238281,0.0000394760981869922
673,-0.00151681900024414,0.0000465777406519638
674,-0.0014190673828125,0.0000587894000103322
675,-0.0014348030090332,0.0000434000406379042
676,-0.001373291015625,0.0000416530290671589
677,-0.00135564804077148,0.0000424659565223619
678,-0.00137424468994141,0.0000398116195110914
679,-0.00137138366699219,0.00004467152406766
680,-0.00136804580688477,0.0000567105541527042
681,-0.00139522552490234,0.0000536107913058572
682,-0.00140190124511719,0.0000469678549558125
683,-0.00131464004516602,0.0000441634621372922
684,-0.0013585090637207,0.0000447338319125009
685,-0.00136661529541016,0.0000372520923526304
686,-0.0013728141784668,0.0000429352078562106
687,-0.00137758255004883,0.0000298889807590767
688,-0.00144577026367187,0.0000344339494397258
689,-0.00141811370849609,0.0000351155846505153
690,-0.00136804580688477,0.000035353544290657
691,-0.00134468078613281,0.000038025334259706
692,-0.0013580322265625,0.0000468624438571918
693,-0.0013575553894043,0.0000598083828745848
694,-0.00135946273803711,0.0000423251738968473
695,-0.00134515762329102,0.0000475679422633913
696,-0.00132083892822266,0.0000575631529038692
697,-0.00125503540039062,0.0000528343317684303
698,-0.0013737678527832,0.0000462863744190864
699,-0.00132608413696289,0.0000356266290819519
700,-0.00136661529541016,0.0000418035551841924
701,-0.00139045715332031,0.0000457440699446831
702,-0.00132226943969727,0.0000506121707452215
703,-0.0013728141784668,0.0000519566546430751
704,-0.00138521194458008,0.0000529149612703787
705,-0.00141191482543945,0.0000537674864246319
706,-0.0013575553894043,0.0000511284181896021
707,-0.00126981735229492,0.000028805266621075
708,-0.00143623352050781,0.0000447401849768694
709,-0.00135374069213867,0.0000634677243498796
710,-0.00135040283203125,0.0000575552523887477
711,-0.00135993957519531,0.0000498254902166244
712,-0.00140571594238281,0.0000487552878149772
713,-0.00131845474243164,0.0000458421334067697
714,-0.0014042854309082,0.0000399427620122382
715,-0.00140047073364258,0.0000460450413906907
716,-0.00143766403198242,0.0000553336598601481
717,-0.00143957138061523,0.0000487331308249794
718,-0.00131940841674805,0.000056332412528876
719,-0.00136470794677734,0.0000503893027702763
720,-0.00140857696533203,0.0000467215257787323
721,-0.00145149230957031,0.0000534834041915208
722,-0.00143718719482422,0.0000475033687430308
723,-0.00140857696533203,0.0000562364690546972
724,-0.00137901306152344,0.0000492586863151308
725,-0.00144815444946289,0.0000562152383980337
726,-0.001434326171875,0.0000386046727183726
727,-0.00147294998168945,0.000039204453861486
728,-0.00142335891723633,0.0000404890627200199
729,-0.00144624710083008,0.0000399953828605503
730,-0.00145339965820312,0.0000493854607110416
731,-0.00150299072265625,0.0000485414606148003
732,-0.00155019760131836,0.0000481274935119231
733,-0.00149059295654297,0.0000537547984311198
734,-0.00149011611938477,0.000054709661519102
735,-0.00156259536743164,0.0000461042601597841
736,-0.00152444839477539,0.0000477456644104346
737,-0.00153398513793945,0.0000627163233256899
738,-0.00160598754882812,0.0000554844652012042
739,-0.00145483016967773,0.0000502186730328332
740,-0.00155973434448242,0.0000576115199181777
741,-0.00157308578491211,0.0000493428547679006
742,-0.00150442123413086,0.0000592612867229395
743,-0.00151538848876953,0.0000570383751090394
744,-0.00146293640136719,0.0000676403215343386
745,-0.00160741806030273,0.0000640330343593665
746,-0.00158023834228516,0.0000458879898043025
747,-0.00154924392700195,0.000050872066735045
748,-0.00152921676635742,0.0000515193808220418
749,-0.00140619277954102,0.0000405676060774864
750,-0.0014042854309082,0.0000378770517414956
751,-0.00151443481445312,0.0000482336754470894
752,-0.00149250030517578,0.0000498197856392249
753,-0.0014190673828125,0.0000594432553215716
754,-0.00141668319702148,0.0000674062916676337
755,-0.00140476226806641,0.000057933261803713
756,-0.0014338493347168,0.0000507613256028685
757,-0.001373291015625,0.0000503847902280409
758,-0.00148296356201172,0.000046572858800923
759,-0.00144815444946289,0.0000454373521788467
760,-0.00134515762329102,0.0000509870269596119
761,-0.00150871276855469,0.0000555090475757688
762,-0.00153684616088867,0.000043232066942761
763,-0.00142288208007812,0.0000352440404741905
764,-0.00142097473144531,0.000043797694150227
765,-0.0013890266418457,0.000047870508540798
766,-0.00143671035766602,0.0000648025031288225
767,-0.00140857696533203,0.0000485262348604117
768,-0.00129222869873047,0.0000481322176830768
769,-0.00141763687133789,0.0000532576089804696
770,-0.00139999389648437,0.0000626655467428479
771,-0.00137615203857422,0.0000475153334231548
772,-0.00139856338500977,0.000044008737398674
773,-0.00133609771728516,0.0000526295175186839
774,-0.00145435333251953,0.0000578291623527356
775,-0.00145673751831055,0.0000531336545057922
776,-0.00143146514892578,0.0000541540918663291
777,-0.00143194198608398,0.0000556573351341815
778,-0.0014042854309082,0.0000629117919665331
779,-0.00137996673583984,0.0000609214289413822
780,-0.00140523910522461,0.0000549925774103443
781,-0.0013880729675293,0.0000528214196265483
782,-0.00148105621337891,0.000056823706012274
783,-0.0013575553894043,0.0000440784307418313
784,-0.00139379501342773,0.0000487529559744415
785,-0.00143289566040039,0.0000514210897563378
786,-0.00140285491943359,0.0000528601465900529
787,-0.00135183334350586,0.0000511462035343229
788,-0.00129508972167969,0.0000533173459319667
789,-0.00137901306152344,0.000041884383639756
790,-0.00138711929321289,0.000055031842328475
791,-0.00142383575439453,0.0000596151342698768
792,-0.00145816802978516,0.0000630381608688052
793,-0.00139951705932617,0.0000555397602434563
794,-0.00134611129760742,0.0000575977049156863
795,-0.00142383575439453,0.0000670579538849852
796,-0.00152015686035156,0.0000655976128206139
797,-0.00146484375,0.0000544430274055179
798,-0.00139236450195312,0.0000663780617579254
799,-0.00145292282104492,0.0000568527086712961
800,-0.0014195442199707,0.0000559334254919288
801,-0.00144815444946289,0.0000392117028037038
802,-0.00137996673583984,0.000042798625321039
803,-0.00143146514892578,0.0000584334705809181
804,-0.00145959854125977,0.0000418823478642933
805,-0.0014190673828125,0.0000463440582840645
806,-0.00141191482543945,0.0000639886329544688
807,-0.00140905380249023,0.0000597865190892172
808,-0.00145673751831055,0.0000565931585290428
809,-0.00145149230957031,0.0000443919772601592
810,-0.00143051147460937,0.0000407842141361699
811,-0.00146150588989258,0.0000421171666778568
812,-0.00151252746582031,0.0000286831522479993
813,-0.00149297714233398,0.0000293908321542325
814,-0.00151443481445312,0.0000388351591887423
815,-0.00153398513793945,0.0000534195967192779
816,-0.00149917602539062,0.0000415724344613592
817,-0.00148630142211914,0.0000488996447614781
818,-0.00157546997070312,0.0000543907978539743
819,-0.00154972076416016,0.0000457701579492164
820,-0.00151968002319336,0.0000614528223553373
821,-0.00156211853027344,0.0000736755845165566
822,-0.00144481658935547,0.0000404764254647839
823,-0.00150346755981445,0.0000419271120907521
824,-0.00148630142211914,0.0000496998382610804
825,-0.00154924392700195,0.000059495826570443
826,-0.00153684616088867,0.0000719960948877046
827,-0.00150108337402344,0.0000658725984166303
828,-0.00153875350952148,0.0000612805321747488
829,-0.00157642364501953,0.0000595015588058546
830,-0.00164937973022461,0.0000570762326622291
831,-0.00154352188110352,0.0000454811170964919
832,-0.00156593322753906,0.0000490029936468781
833,-0.00161170959472656,0.0000478871298334189
834,-0.00158071517944336,0.0000497547072284441
835,-0.00168895721435547,0.0000615267772799321
836,-0.00164937973022461,0.0000641695976477719
837,-0.00166416168212891,0.0000528902479572377
838,-0.00162601470947266,0.0000413413966247866
839,-0.0015869140625,0.0000444201390756081
840,-0.00153064727783203,0.0000549853413408397
841,-0.00159740447998047,0.0000492159706243487
842,-0.00160360336303711,0.0000412760336042132
843,-0.00156641006469727,0.0000575858608471022
844,-0.00153875350952148,0.0000605658278728663
845,-0.00155210494995117,0.0000601089127303986
846,-0.00153636932373047,0.0000617904422871592
847,-0.0015263557434082,0.0000558652939590745
848,-0.00154447555541992,0.0000479535573924931
849,-0.00141048431396484,0.0000592795087190772
850,-0.00145387649536133,0.0000710791324394763
851,-0.00153875350952148,0.0000688051400434846
852,-0.00142621994018555,0.000073308963931952
853,-0.00139808654785156,0.000046966644678032
854,-0.00147724151611328,0.0000626728030590769
855,-0.00148153305053711,0.0000739266776133861
856,-0.00150489807128906,0.0000581741333007813
857,-0.00147008895874023,0.0000492863739952309
858,-0.00138282775878906,0.0000469763260272053
859,-0.00132656097412109,0.0000723285111460058
860,-0.00137472152709961,0.0000703573186532475
861,-0.00141429901123047,0.0000736524347779802
862,-0.00139188766479492,0.0000763624598897726
863,-0.00143146514892578,0.00006887450174609
864,-0.00140094757080078,0.0000528751994156994
865,-0.00135278701782227,0.0000659036565625658
866,-0.00130224227905273,0.0000604013601612114
867,-0.00142383575439453,0.0000547418610891526
868,-0.00139141082763672,0.000052744958108673
869,-0.00142288208007812,0.0000640969183470139
870,-0.00135946273803711,0.0000615267772799321
871,-0.00132942199707031,0.0000569935112743724
872,-0.00135040283203125,0.0000648778966968344
873,-0.00138378143310547,0.0000721648575301842
874,-0.00135707855224609,0.0000465533262773689
875,-0.00130462646484375,0.0000463416051142095
876,-0.00121879577636719,0.0000528106570967138
877,-0.00133371353149414,0.0000367180093215937
878,-0.00127077102661133,0.0000529922501745457
879,-0.0013422966003418,0.0000613009358333973
880,-0.00136327743530273,0.0000541320445048462
881,-0.00126791000366211,0.0000546087853763084
882,-0.00123929977416992,0.0000727969659639425
883,-0.00125885009765625,0.0000735983904041666
884,-0.00132369995117187,0.0000488449790298433
885,-0.0012969970703125,0.0000455185963917656
886,-0.00133514404296875,0.0000573980040622905
887,-0.00122785568237305,0.0000609671317949946
888,-0.00132226943969727,0.0000500133762462703
889,-0.00119113922119141,0.0000565529673738214
890,-0.00134086608886719,0.0000550628211699853
891,-0.00130414962768555,0.0000475009754453623
892,-0.00135612487792969,0.0000526921241822467
893,-0.00124454498291016,0.0000438275348399203
894,-0.00132513046264648,0.0000543364258635988
895,-0.00126123428344727,0.0000612898074070855
896,-0.00128173828125,0.0000718759854175626
897,-0.00133180618286133,0.0000573593678806136
898,-0.00127220153808594,0.0000474423019383815
899,-0.00132989883422852,0.0000885172122006436
900,-0.00126409530639648,0.0000632847526601557
901,-0.0012664794921875,0.0000465606519339398
902,-0.00132083892822266,0.0000518109410480335
903,-0.00128412246704102,0.0000838284606398598
904,-0.0012364387512207,0.0000802065047194762
905,-0.00124931335449219,0.0000456980691288851
906,-0.00131320953369141,0.000058487921377353
907,-0.0013422966003418,0.0000488856933646859
908,-0.00136995315551758,0.0000661842417605117
909,-0.00134897232055664,0.000114058810331162
910,-0.00128698348999023,0.0000678316570361453
911,-0.00148820877075195,0.0000534483195083697
912,-0.00140285491943359,0.0000797445104994464
913,-0.00135660171508789,0.0000874603063638655
914,-0.00145530700683594,0.000100947676476553
915,-0.00131082534790039,0.0000663352300128135
916,-0.00146818161010742,0.0000419907848181408
917,-0.00144672393798828,0.0000399776132940734
918,-0.00148916244506836,0.0000582454197722941
919,-0.00151634216308594,0.0000505481125047545
920,-0.00143814086914062,0.0000579312993945596
921,-0.00144195556640625,0.0000843071829345248
922,-0.00152921676635742,0.000094635058664102
923,-0.00157785415649414,0.000065628801100745
924,-0.00162839889526367,0.0000526651476775131
925,-0.00169706344604492,0.0000626564751658027
926,-0.00167512893676758,0.0000787792134463338
927,-0.00173616409301758,0.0000851725138469936
928,-0.00179862976074219,0.000085435061474073
929,-0.0018916130065918,0.0000771843097416057
930,-0.00188207626342773,0.0000679187538710207
931,-0.00194406509399414,0.0000639975156998999
932,-0.00195837020874023,0.0000929649041498847
933,-0.00202465057373047,0.0000781853008198555
934,-0.00221443176269531,0.0000694269007353855
935,-0.00219917297363281,0.0000648007487463348
936,-0.00230026245117187,0.000103549446094858
937,-0.00211477279663086,0.000090664287978364
938,-0.0024104118347168,0.0000706893999494685
939,-0.00239658355712891,0.00006887450174609
940,-0.00247097015380859,0.0000791650214188173
941,-0.00255107879638672,0.000101376970412585
942,-0.00247430801391602,0.0000655109008027748
943,-0.00262737274169922,0.0000736755845165566
944,-0.00262737274169922,0.0000729872443784493
945,-0.00269985198974609,0.000134694470231581
946,-0.00288724899291992,0.0000683675408807902
947,-0.0029759407043457,0.0000695871911052207
948,-0.0031123161315918,0.0000690459546462952
949,-0.00320100784301758,0.0000953268918656441
950,-0.00336694717407227,0.000114690984265294
951,-0.00323629379272461,0.000109350727439554
952,-0.00344324111938477,0.000118576276472398
953,-0.00367927551269531,0.000101204123354811
954,-0.00370311737060547,0.0000870981934800487
955,-0.00395441055297852,0.0000868603091092665
956,-0.00380516052246094,0.0000939526520544107
957,-0.00422573089599609,0.000125182241997607
958,-0.00425004959106445,0.000154088509255181
959,-0.00443410873413086,0.000116724827607109
960,-0.00442934036254883,0.0000799182491249676
961,-0.00460004806518555,0.000113298756484011
962,-0.00445938110351563,0.000106072423162823
963,-0.00440549850463867,0.000110253577885464
964,-0.00442647933959961,0.00010352089678413
965,-0.00446319580078125,0.000095956888031809
966,-0.00434160232543945,0.000102214580107813
967,-0.00438022613525391,0.000115780146870831
968,-0.00418186187744141,0.00017984790678196
969,-0.00414419174194336,0.000165384835039731
970,-0.00424957275390625,0.000140258227563835
971,-0.00406265258789063,0.000158639931583314
972,-0.00397205352783203,0.000158094351257159
973,-0.0036616325378418,0.000136071647078637
974,-0.00372600555419922,0.000144823538548074
975,-0.00366401672363281,0.000145662630408972
976,-0.00387096405029297,0.000086104433307336
977,-0.00361537933349609,0.000100715412965809
978,-0.00358819961547852,0.000133953055102443
979,-0.00342273712158203,0.0000910147116885388
980,-0.00330114364624023,0.000115481257406111
981,-0.00330972671508789,0.000112717284550405
982,-0.00345659255981445,0.000147307956640503
983,-0.00290298461914062,0.000191733606458706
984,-0.00299835205078125,0.000153810845464543
985,-0.00293827056884766,0.000183383412807036
986,-0.00263166427612305,0.000211113425356325
987,-0.00292205810546875,0.000185890671361316
988,-0.00262594223022461,0.000183125335887122
989,-0.00244522094726562,0.000176272451027863
990,-0.00240850448608398,0.000238327008782309
991,-0.00228786468505859,0.000211061721998182
992,-0.00258731842041016,0.000154586458944772
993,-0.00187921524047852,0.000129990392199728
994,-0.00210905075073242,0.000240303220130249
995,-0.00171899795532227,0.000253397564994553
996,-0.00212001800537109,0.00022133874854101
997,-0.00199794769287109,0.000181934466707999
998,-0.00193262100219727,0.000190844504314897
999,-0.00147104263305664,0.000214616983662962
1000,-0.00184774398803711,0.000201173296536821
1001,-0.00136947631835937,0.000189183602630271
1002,-0.00160789489746094,0.000185591980822298
1003,-0.00212240219116211,0.000214515253375845
1004,-0.00175666809082031,0.000208390386103231
1005,-0.0016789436340332,0.000191134986804653
1006,-0.00131368637084961,0.000280049186971295
1007,-0.001495361328125,0.000228957322706194
1008,-0.00127172470092773,0.000226481085723708
1009,-0.00159788131713867,0.000237597003640714
1010,-0.00139904022216797,0.000182767397001533
1011,-0.00129032135009766,0.000195249532443778
1012,-0.00127649307250977,0.000257442610901142
1013,-0.0011749267578125,0.000286737372939547
1014,-0.000997066497802734,0.000207305194455359
1015,-0.0014653205871582,0.000286216712960811
1016,-0.00130367279052734,0.000285076846782796
1017,-0.000802516937255859,0.000196456909179687
1018,-0.00171518325805664,0.000194657052955355
1019,-0.00117588043212891,0.000261313723728991
1020,-0.00102138519287109,0.000296480764868397
1021,-0.00136423110961914,0.000268272500902898
1022,-0.00133323669433594,0.000256961700159216
1023,-0.00148391723632812,0.000315284209761564
1024,-0.000990390777587891,0.000354941130456286
1025,-0.00109720230102539,0.00031169835100974
1026,-0.00150394439697266,0.000368666364390551
1027,-0.00100040435791016,0.000304752294439672
1028,-0.00113058090209961,0.000283380917119947
1029,-0.00170803070068359,0.000346728492713179
1030,-0.00162839889526367,0.000270305690583143
1031,-0.00122594833374023,0.000330544123398655
1032,-0.0015101432800293,0.000258373588259584
1033,-0.00115442276000977,0.000273230604252761
1034,-0.00173377990722656,0.000347566863018164
1035,-0.00178766250610352,0.000402690038798213
1036,-0.00154972076416016,0.000408261726133756
1037,-0.00179100036621094,0.000414373410991963
1038,-0.00239753723144531,0.000348768489680359
1039,-0.00191545486450195,0.000310704691990619
1040,-0.00170421600341797,0.000369897800662182
1041,-0.0020756721496582,0.000333666098717607
1042,-0.00170755386352539,0.0002450701779619
1043,-0.00173282623291016,0.000505803540547037
1044,-0.00270271301269531,0.00053103819562299
1045,-0.00204229354858398,0.000431710150780948
1046,-0.00278234481811523,0.000624818999188266
1047,-0.00132560729980469,0.000629586863669728
1048,-0.00300788879394531,0.000546793974255409
1049,-0.00259065628051758,0.000485209398633346
1050,-0.00200796127319336,0.000459564164907255
1051,-0.0019230842590332,0.000553670160114103
1052,-0.000948905944824219,0.000332010177336296
1053,-0.00241565704345703,0.00046560407763957
1054,-0.00316381454467773,0.000519177354836514
1055,-0.00329780578613281,0.000607986636885199
1056,-0.00397205352783203,0.000737332728781102
1057,-0.00299644470214844,0.000676579335583593
1058,-0.00323581695556641,0.000579382067799795
1059,-0.00424528121948242,0.000502469630139141
1060,-0.00358057022094727,0.00049962341200889
1061,-0.00328922271728516,0.000467062909240765
1062,-0.00287580490112305,0.000732819131564979
1063,-0.00246334075927734,0.000924951998811908
1064,-0.00355339050292969,0.000872073502443979
1065,-0.00416898727416992,0.000740660583721703
1066,-0.00329446792602539,0.000707027150769232
1067,-0.00271081924438477,0.00072911629190596
1068,-0.00281810760498047,0.000811930331786832
1069,-0.00226926803588867,0.000829466426081963
1070,-0.00439262390136719,0.00097983527141389
1071,-0.00263786315917969,0.000860888519252478
1072,-0.00306987762451172,0.000716939850821792
1073,-0.00479459762573242,0.000882935559717735
1074,-0.00265121459960937,0.00120474396652455
1075,-0.00387048721313477,0.000926304015712673
1076,-0.00205802917480469,0.00126422543613154
1077,-0.00173473358154297,0.0012466766838481
1078,-0.00117349624633789,0.000976860477763014
1079,-0.00322103500366211,0.00118435138902808
1080,-0.00343084335327148,0.00111106618734116
1081,-0.00431489944458008,0.00121767144437601
1082,-0.00442838668823242,0.000920504709340123
1083,-0.00281524658203125,0.00163329639063589
1084,-0.00234651565551758,0.00107493268477298
1085,-0.00343084335327148,0.00121040771031582
1086,-0.00469589233398438,0.00173876562763516
1087,-0.0050506591796875,0.00134370511418051
1088,-0.00180768966674805,0.00136318728524823
1089,-0.00367212295532227,0.0018783501160883
1090,-0.00400209426879883,0.001739936908083
1091,-0.00343894958496094,0.0010062705745726
1092,-0.00270223617553711,0.00172758201127389
1093,-0.00349712371826172,0.00252946359681422
1094,-0.00521278381347656,0.00198182242589923
1095,-0.00544834136962891,0.00168635508763379
1096,-0.0082554817199707,0.00160416978184492
1097,-0.00649023056030273,0.00145723432756888
1098,-0.00194692611694336,0.00160638165565218
1099,-0.00533819198608398,0.00226792013725299
1100,-0.00647306442260742,0.00199160810534787
