Wavelength (nm),Absorbance (AU),Std.Dev.
190,0.0909533500671387,0.0000730930862112801
191,0.085942268371582,0.0000486537494448217
192,0.0811262130737305,0.0000470863112724596
193,0.0763235092163086,0.0000363187490790232
194,0.0719132423400879,0.0000334262507788122
195,0.06768798828125,0.0000378657945558392
196,0.0637125968933106,0.0000338378040970932
197,0.0601282119750977,0.0000429305738340868
198,0.0567646026611328,0.000033737703230493
199,0.0535402297973633,0.0000316010313525789
200,0.0503315925598145,0.0000263363512457512
201,0.0472216606140137,0.0000336068726504772
202,0.0444712638854981,0.0000335882618503914
203,0.0422468185424805,0.0000351350043034033
204,0.0403013229370117,0.0000322746905581495
205,0.0386738777160645,0.0000305827012203915
206,0.0372014045715332,0.0000368871375586553
207,0.0358037948608398,0.0000369402641188792
208,0.0346379280090332,0.0000397015259353006
209,0.0335736274719238,0.000039904319221706
210,0.0324902534484863,0.0000504941056914833
211,0.0314397811889648,0.0000361642555730029
212,0.0305166244506836,0.0000337435997368515
213,0.029571533203125,0.0000365410989030213
214,0.0287594795227051,0.0000260973068166194
215,0.027862548828125,0.0000318750571563108
216,0.0271000862121582,0.0000373823301744836
217,0.0262894630432129,0.0000323626326572853
218,0.0256237983703613,0.0000351956216568869
219,0.0248861312866211,0.0000288496332552071
220,0.0241904258728027,0.000024960614824637
221,0.0235595703125,0.0000246881258651809
222,0.0228843688964844,0.0000274616393907272
223,0.0223088264465332,0.0000258873615237145
224,0.0216817855834961,0.0000289582896032219
225,0.0210819244384766,0.0000243157730965046
226,0.0205855369567871,0.0000228197844026595
227,0.0200705528259277,0.0000303087127819722
228,0.0195837020874023,0.0000345558924064912
229,0.01910400390625,0.0000329949262466549
230,0.0186495780944824,0.0000327684632273267
231,0.0182523727416992,0.000038725959249639
232,0.017916202545166,0.0000364328241263113
233,0.0174298286437988,0.0000256219562957919
234,0.0171089172363281,0.000027976873592378
235,0.0167632102966309,0.000036502966749515
236,0.0164437294006348,0.0000363578561745339
237,0.016232967376709,0.0000223427595528309
238,0.0160150527954102,0.0000248144380313096
239,0.0157504081726074,0.0000247111397372163
240,0.0156068801879883,0.0000265272143993178
241,0.0155305862426758,0.0000429716006415091
242,0.0153322219848633,0.0000347568171389426
243,0.015143871307373,0.00002838783452801
244,0.0150661468505859,0.0000275437958499872
245,0.014955997467041,0.0000256491190528166
246,0.0148086547851562,0.000031306456650315
247,0.0147061347961426,0.0000251223502007983
248,0.0146303176879883,0.0000232112456357417
249,0.0144729614257812,0.000022268856866523
250,0.0143303871154785,0.0000200250317940714
251,0.0141782760620117,0.0000232894805173887
252,0.0140318870544434,0.0000172297636373971
253,0.0139679908752441,0.0000219746409122553
254,0.0138201713562012,0.0000276185053486459
255,0.0137009620666504,0.0000210751100619579
256,0.0135154724121094,0.0000290063417939638
257,0.0133957862854004,0.0000257436870028005
258,0.0132899284362793,0.0000315785385519209
259,0.013160228729248,0.0000317060855760119
260,0.0130562782287598,0.0000441158132074695
261,0.012901782989502,0.0000366963294187926
262,0.0127925872802734,0.0000395932798002813
263,0.012636661529541,0.0000444431672878448
264,0.0125436782836914,0.0000322685256355521
265,0.0124049186706543,0.0000308666898699229
266,0.0122466087341309,0.0000296560512646984
267,0.0121593475341797,0.0000310576234546214
268,0.0120139122009277,0.0000328178649085483
269,0.011894702911377,0.000055710417964687
270,0.0116381645202637,0.0000432675531635642
271,0.0115432739257812,0.0000416721303294862
272,0.0114250183105469,0.0000441480140651806
273,0.011284351348877,0.0000425007449480582
274,0.0111899375915527,0.0000437379516934851
275,0.0110278129577637,0.0000474794303375885
276,0.0109066963195801,0.0000477301848006423
277,0.0107769966125488,0.0000438184550421437
278,0.0106158256530762,0.0000406411026159293
279,0.0105080604553223,0.0000293913156634353
280,0.0103893280029297,0.0000243566488035777
281,0.0102114677429199,0.0000297799026082507
282,0.0101242065429687,0.0000369741020662089
283,0.00992345809936523,0.0000354458754593597
284,0.00980091094970703,0.0000332924890082868
285,0.00966882705688477,0.0000393072635533895
286,0.00953292846679688,0.0000276894209689292
287,0.00931787490844727,0.000031138963356664
288,0.00917577743530273,0.0000302368905305628
289,0.00899887084960938,0.0000228925293532021
290,0.00893545150756836,0.0000283271975731557
291,0.00875473022460938,0.000022802964150067
292,0.00868606567382813,0.0000361948929337419
293,0.00845813751220703,0.0000579254117682022
294,0.00835227966308594,0.000041090389027394
295,0.00826883316040039,0.0000385014633105308
296,0.00812959671020508,0.0000353149346566878
297,0.00798320770263672,0.0000378515306478703
298,0.00792837142944336,0.0000435295132560218
299,0.00780153274536133,0.0000379385319823332
300,0.00764846801757813,0.0000336795252841756
301,0.00753402709960938,0.0000290058518674908
302,0.00745916366577148,0.0000382147127943286
303,0.0073237419128418,0.0000362404082865931
304,0.00734090805053711,0.0000451965164606964
305,0.00719451904296875,0.0000308362888607497
306,0.0070805549621582,0.0000341321823145292
307,0.00695896148681641,0.0000408893076360183
308,0.00687122344970703,0.0000309971661447339
309,0.00683736801147461,0.0000389082758690364
310,0.00672817230224609,0.0000461843312101947
311,0.00654792785644531,0.0000442380517715224
312,0.00653648376464844,0.0000410813961055049
313,0.00639057159423828,0.0000282151037769776
314,0.0063633918762207,0.0000250220270370402
315,0.00628995895385742,0.0000305399216873282
316,0.00615501403808594,0.0000259164395174049
317,0.0060582160949707,0.0000261152702358596
318,0.00603628158569336,0.0000263735567356828
319,0.00588464736938477,0.000032365267228419
320,0.005767822265625,0.0000403124856813821
321,0.00581789016723633,0.0000552112776507635
322,0.0056767463684082,0.0000431912875493889
323,0.00557279586791992,0.000042340615772945
324,0.00553798675537109,0.0000434916268494551
325,0.00540924072265625,0.0000451562522955006
326,0.00536489486694336,0.00004362734276959
327,0.00527858734130859,0.0000429914382669291
328,0.00522327423095703,0.0000448898562997883
329,0.00500679016113281,0.0000507904325118539
330,0.00493907928466797,0.0000640365851417664
331,0.00493764877319336,0.0000399598358257258
332,0.00485801696777344,0.0000465093481069042
333,0.00481748580932617,0.0000476479396123345
334,0.00469017028808594,0.0000460240498047396
335,0.00455808639526367,0.00004370154673333
336,0.00449323654174805,0.0000574554149486588
337,0.00447893142700195,0.0000445300552833749
338,0.0044093132019043,0.0000547003097065749
339,0.00442409515380859,0.000057034388641666
340,0.00429630279541016,0.0000416154832055599
341,0.00419235229492188,0.0000391652863893385
342,0.0041651725769043,0.0000414203822780151
343,0.00407934188842773,0.0000358421716174433
344,0.0039973258972168,0.0000350231942517723
345,0.00397729873657227,0.0000369025444332552
346,0.0038914680480957,0.0000426955688502595
347,0.00388002395629883,0.0000635661669939416
348,0.00375795364379883,0.0000497055566045302
349,0.00371313095092773,0.0000428192068510775
350,0.00374937057495117,0.000044350982697787
351,0.0035548210144043,0.0000514487185717233
352,0.00350570678710937,0.0000684954627628404
353,0.00337600708007812,0.000042505425830968
354,0.00338459014892578,0.0000344133083057423
355,0.00331687927246094,0.0000415190741752856
356,0.00327253341674805,0.0000378920561200517
357,0.0032963752746582,0.0000440539215819172
358,0.00327777862548828,0.0000462642636792683
359,0.00320911407470703,0.0000497375671783649
360,0.00319051742553711,0.0000383950156235962
361,0.00309848785400391,0.0000403357451230797
362,0.00300216674804687,0.0000468041843862044
363,0.00299835205078125,0.0000686463358349226
364,0.00288724899291992,0.0000632020627051578
365,0.00292539596557617,0.0000476419742990576
366,0.00281953811645508,0.0000509279050794449
367,0.00282621383666992,0.0000585966711756585
368,0.00272130966186523,0.0000673590505683512
369,0.00277614593505859,0.0000454398541667993
370,0.00270986557006836,0.0000639584223922009
371,0.00278854370117187,0.0000971274101072385
372,0.00268173217773437,0.0000816534033890927
373,0.00261831283569336,0.0000846127349675038
374,0.00265598297119141,0.0000587787631577929
375,0.00244283676147461,0.0000508776533272072
376,0.00246572494506836,0.0000810973708710429
377,0.00248622894287109,0.0000663729234079125
378,0.00238895416259766,0.0000523588044632328
379,0.00241327285766602,0.0000651052997659387
380,0.00238704681396484,0.0000883835391547978
381,0.00238037109375,0.0000827116627008306
382,0.00239944458007812,0.0000742320754415955
383,0.0021815299987793,0.0000726437583923214
384,0.00214290618896484,0.0000678534417258993
385,0.00215339660644531,0.0000865245955647518
386,0.00218725204467773,0.0000800291302582064
387,0.00216865539550781,0.0000998151276639545
388,0.00213003158569336,0.0000783407317272676
389,0.00189924240112305,0.0000651052997659387
390,0.00205230712890625,0.0000648007487463348
391,0.00184726715087891,0.000041330395354825
392,0.00197124481201172,0.0000473499538194916
393,0.00197267532348633,0.0000692153403631659
394,0.0020442008972168,0.0000723803623636101
395,0.00195837020874023,0.0000811534257392331
396,0.00181245803833008,0.0000646672764135921
397,0.00184297561645508,0.0000746870696951542
398,0.00180864334106445,0.0000797088615707829
399,0.00167989730834961,0.0000613787783229588
400,0.00170516967773437,0.0000679589147618098
401,0.0015254020690918,0.0000954436950927491
402,0.0017857551574707,0.0000724196188734351
403,0.00151157379150391,0.0000614454219672619
404,0.00145053863525391,0.0000820852696778462
405,0.00149679183959961,0.0000455036083780593
406,0.00147914886474609,0.000081743853432082
407,0.00157022476196289,0.0000653162481496095
408,0.00151300430297852,0.0000600445724829948
409,0.00137710571289062,0.0000714110411129876
410,0.00132179260253906,0.0000571896549597318
411,0.00150156021118164,0.0000375681413819609
412,0.00145435333251953,0.0000549791382375381
413,0.00126838684082031,0.0000559537471847559
414,0.0012660026550293,0.0000779625108109563
415,0.00127220153808594,0.0000803410474071783
416,0.0011906623840332,0.0000676957637415987
417,0.00114965438842773,0.0000852458953097784
418,0.00111484527587891,0.0000657153575482421
419,0.00116682052612305,0.0000489321825515167
420,0.00106143951416016,0.0000557767004604254
421,0.00114631652832031,0.0000593532984802
422,0.000952720642089844,0.0000522794918267706
423,0.000975608825683594,0.0000624128657224891
424,0.000863552093505859,0.0000897569165485568
425,0.000941753387451172,0.0000711031199982129
426,0.000920295715332031,0.0000555244060331561
427,0.00102519989013672,0.0000394940934006665
428,0.000771045684814453,0.0000576440707525708
429,0.000866413116455078,0.0000600057457608771
430,0.000796318054199219,0.0000411152822378926
431,0.000761985778808594,0.0000484945968651081
432,0.000767230987548828,0.0000454110729826151
433,0.000737190246582031,0.0000459040906365669
434,0.000525474548339844,0.0000633906536179289
435,0.000633716583251953,0.0000718095229435279
436,0.000734806060791016,0.0000615286250141332
437,0.000656604766845703,0.0000659226293373261
438,0.000667572021484375,0.000068782003932332
439,0.000646114349365234,0.0000593255183052436
440,0.000594139099121094,0.0000364905068040227
441,0.000590801239013672,0.0000562111935542813
442,0.000522613525390625,0.0000565348720322733
443,0.000461578369140625,0.0000523131872249698
444,0.000541210174560547,0.0000573663044959985
445,0.000642776489257813,0.0000431023602442811
446,0.000395298004150391,0.0000385302422830135
447,0.000341415405273437,0.0000455248399411251
448,0.000432014465332031,0.000048174714376414
449,0.000440120697021484,0.0000443381641239484
450,0.000367164611816406,0.0000603297945434719
451,0.000426292419433594,0.0000589863176378222
452,0.000357151031494141,0.0000433882512419231
453,0.000227928161621094,0.000047487810152143
454,0.000411510467529297,0.0000374977173830748
455,0.000214576721191406,0.0000412849841291156
456,0.0001373291015625,0.0000764100859705792
457,0.000197410583496094,0.0000451738722836886
458,0.000142574310302734,0.0000403780006905455
459,0.000104904174804687,0.0000483913368630155
460,0.000100135803222656,0.0000583468281534977
461,0.000102043151855469,0.0000552102480794279
462,-0.0000119209289550781,0.0000739958477101822
463,0.0000829696655273438,0.0000713027024937391
464,-0.00000810623168945313,0.0000716573772373404
465,-0.000102043151855469,0.0000473091193558436
466,-0.0000171661376953125,0.0000553203035478673
467,-0.0000433921813964844,0.0000626020180979779
468,-0.00000762939453125,0.0000532981520706865
469,0.0000524520874023438,0.0000539247803448794
470,0.0000252723693847656,0.0000615304726928476
471,-0.000072479248046875,0.0000524585893242416
472,-0.0000371932983398437,0.0000606511748291682
473,-0.0000820159912109375,0.0000629190198838325
474,-0.00000143051147460937,0.0000562950645112675
475,-0.000172615051269531,0.0000775472692499394
476,-0.000215053558349609,0.0000792425314759425
477,-0.000126838684082031,0.0000654935446226311
478,-0.000339031219482422,0.0000554977820057164
479,-0.000340461730957031,0.0000567896840322853
480,-0.000315189361572266,0.0000476360082387626
481,-0.000182628631591797,0.0000462728635557485
482,-0.000268936157226562,0.0000564503504093367
483,-0.000320911407470703,0.0000656495850560113
484,-0.000340461730957031,0.0000436403701349165
485,0.000540256500244141,0.0000376112393011726
486,-0.00123167037963867,0.0000386517623724942
487,-0.000296592712402344,0.0000377236661948481
488,-0.000423431396484375,0.0000753960825226102
489,-0.000339508056640625,0.0000771681058459922
490,-0.000444889068603516,0.0000578596259095099
491,-0.000426292419433594,0.0000549191387838017
492,-0.000399112701416016,0.0000668814048670832
493,-0.000374794006347656,0.0000678132183710475
494,-0.000502586364746094,0.000058913033097976
495,-0.000440597534179688,0.0000470838967755592
496,-0.000581741333007813,0.0000605367261582281
497,-0.000400543212890625,0.0000578743605835456
498,-0.000387668609619141,0.0000598178863756498
499,-0.000567436218261719,0.0000608906301381014
500,-0.000666618347167969,0.0000432136552077612
501,-0.000679969787597656,0.000067436643470298
502,-0.000687599182128906,0.0000441261200385681
503,-0.000524044036865234,0.0000463612268384355
504,-0.000533580780029297,0.0000572949163470169
505,-0.000547409057617188,0.0000484922524887626
506,-0.000710010528564453,0.0000618842048950324
507,-0.000693798065185547,0.0000748057051723556
508,-0.000666141510009766,0.0000699017902866233
509,-0.000677108764648438,0.0000872494736593832
510,-0.000677585601806641,0.0000511462035343229
511,-0.000608444213867188,0.0000510549881527869
512,-0.000775814056396484,0.0000777156801475647
513,-0.000788211822509766,0.000065010936611764
514,-0.00078582763671875,0.0000446447940854852
515,-0.000799655914306641,0.0000658553375619942
516,-0.000792503356933594,0.0000694972777435572
517,-0.000879764556884766,0.0000680592133081887
518,-0.000858306884765625,0.0000520714036651648
519,-0.000889778137207031,0.0000640063972125924
520,-0.000831127166748047,0.0000956483518160866
521,-0.000926494598388672,0.0000489855905730466
522,-0.000932216644287109,0.0000431405885092185
523,-0.000848770141601563,0.000055888691757827
524,-0.000983238220214844,0.0000447300196407594
525,-0.000871658325195313,0.0000484347798217928
526,-0.000994682312011719,0.0000610323622183244
527,-0.000883579254150391,0.0000501269038274175
528,-0.000833511352539063,0.0000521183232048247
529,-0.000971794128417969,0.0000701842097968067
530,-0.000921249389648438,0.0000710007166037914
531,-0.000968456268310547,0.0000690064264022389
532,-0.0010685920715332,0.000048738962588397
533,-0.000995159149169922,0.000047699210510476
534,-0.000935554504394531,0.0000526068312166519
535,-0.00104999542236328,0.0000405872181676229
536,-0.00106191635131836,0.0000489054566688356
537,-0.00110530853271484,0.000045639568805319
538,-0.00112676620483398,0.000043289881415905
539,-0.0010528564453125,0.0000563475465649508
540,-0.00101518630981445,0.0000539932549462931
541,-0.00110006332397461,0.0000448961872858292
542,-0.00109386444091797,0.0000451612872793258
543,-0.00108623504638672,0.0000500497330897787
544,-0.00112056732177734,0.000056483570416376
545,-0.00118732452392578,0.0000542264700830655
546,-0.00114822387695312,0.0000686016059165091
547,-0.00101661682128906,0.0000504434217900135
548,-0.00111627578735352,0.0000429471216171177
549,-0.00118684768676758,0.000051877822905205
550,-0.00115251541137695,0.0000483302158884928
551,-0.00118112564086914,0.0000387743676344246
552,-0.00112771987915039,0.0000346216286953381
553,-0.00109529495239258,0.0000372726864735848
554,-0.00115585327148437,0.0000480376459880515
555,-0.00110578536987305,0.0000598539859180954
556,-0.00117635726928711,0.0000482902103468787
557,-0.00115394592285156,0.000036590844317226
558,-0.00117826461791992,0.0000437548437002352
559,-0.00116109848022461,0.0000513281480024434
560,-0.00117874145507812,0.0000457241833792635
561,-0.00130748748779297,0.0000369479572826586
562,-0.00133180618286133,0.0000441634621372922
563,-0.00115585327148437,0.0000469303218312092
564,-0.00124883651733398,0.0000383157275660803
565,-0.00128984451293945,0.0000478217986655461
566,-0.00129413604736328,0.0000465716382582038
567,-0.00132226943969727,0.0000377259263827532
568,-0.00140857696533203,0.0000360453883999256
569,-0.00132942199707031,0.0000484535539025683
570,-0.00137186050415039,0.0000341263529493006
571,-0.00140714645385742,0.0000358358273087615
572,-0.00137901306152344,0.0000346454272980551
573,-0.00128746032714844,0.000037139768470958
574,-0.00137948989868164,0.0000292541636807292
575,-0.00130939483642578,0.00002883879438105
576,-0.00124073028564453,0.0000293090045178019
577,-0.00133323669433594,0.0000288240075296543
578,-0.00134563446044922,0.0000277575957342999
579,-0.00131511688232422,0.0000428046016234286
580,-0.00130558013916016,0.0000403484264398693
581,-0.0012049674987793,0.0000282120816475678
582,-0.00143337249755859,0.0000293201542482544
583,-0.00143909454345703,0.0000312237325904786
584,-0.00118255615234375,0.0000251630451792016
585,-0.00131368637084961,0.0000333325886341483
586,-0.00144767761230469,0.0000403096654431192
587,-0.00131988525390625,0.0000352351686719236
588,-0.00142812728881836,0.0000359324563035203
589,-0.00137758255004883,0.0000286529143126253
590,-0.00138092041015625,0.0000351390487135675
591,-0.00147151947021484,0.0000349305594837421
592,-0.00128984451293945,0.0000295076103471702
593,-0.0014491081237793,0.0000432149705918329
594,-0.00129890441894531,0.0000333615668291317
595,-0.00140810012817383,0.0000270145189304656
596,-0.00147008895874023,0.0000363805190281152
597,-0.00135326385498047,0.0000455298341641604
598,-0.00133800506591797,0.0000330379679908622
599,-0.00127553939819336,0.0000303546272918029
600,-0.00123739242553711,0.0000265427453998424
601,-0.00133943557739258,0.0000253060853726107
602,-0.0014033317565918,0.0000245542200476244
603,-0.00144577026367187,0.0000308933812114014
604,-0.0014653205871582,0.0000260640691145016
605,-0.00135040283203125,0.0000298252017889701
606,-0.00140380859375,0.0000331650441723908
607,-0.00136613845825195,0.0000317087746973921
608,-0.00147294998168945,0.0000264365246372067
609,-0.00148487091064453,0.0000219513476051715
610,-0.00141000747680664,0.0000210413682694857
611,-0.00149726867675781,0.0000250032781976917
612,-0.00141668319702148,0.0000286454738652583
613,-0.00142002105712891,0.0000292303511593139
614,-0.00152969360351562,0.0000324783516176547
615,-0.00154495239257812,0.0000310759206303895
616,-0.00159549713134766,0.0000282558708874718
617,-0.00149345397949219,0.0000389433231145771
618,-0.00138664245605469,0.0000427008939812522
619,-0.00135421752929687,0.000039349178979358
620,-0.00126028060913086,0.0000357540437819376
621,-0.0013728141784668,0.0000320954270355695
