Wavelength (nm),Absorbance (AU),Std.Dev.
190,0.0909533500671387,0.0000730930862112801
191,0.085942268371582,0.0000486537494448217
192,0.0811262130737305,0.0000470863112724596
193,0.0763235092163086,0.0000363187490790232
194,0.0719132423400879,0.0000334262507788122
195,0.06768798828125,0.0000378657945558392
196,0.0637125968933106,0.0000338378040970932
197,0.0601282119750977,0.0000429305738340868
198,0.0567646026611328,0.000033737703230493
199,0.0535402297973633,0.0000316010313525789
200,0.0503315925598145,0.0000263363512457512
201,0.0472216606140137,0.0000336068726504772
202,0.0444712638854981,0.0000335882618503914
203,0.0422468185424805,0.0000351350043034033
204,0.0403013229370117,0.0000322746905581495
205,0.0386738777160645,0.0000305827012203915
206,0.0372014045715332,0.0000368871375586553
207,0.0358037948608398,0.0000369402641188792
208,0.0346379280090332,0.0000397015259353006
209,0.0335736274719238,0.000039904319221706
210,0.0324902534484863,0.0000504941056914833
211,0.0314397811889648,0.0000361642555730029
212,0.0305166244506836,0.0000337435997368515
213,0.029571533203125,0.0000365410989030213
214,0.0287594795227051,0.0000260973068166194
215,0.027862548828125,0.0000318750571563108
216,0.0271000862121582,0.0000373823301744836
217,0.0262894630432129,0.0000323626326572853
218,0.0256237983703613,0.0000351956216568869
219,0.0248861312866211,0.0000288496332552071
220,0.0241904258728027,0.000024960614824637
221,0.0235595703125,0.0000246881258651809
222,0.0228843688964844,0.0000274616393907272
223,0.0223088264465332,0.0000258873615237145
224,0.0216817855834961,0.0000289582896032219
225,0.0210819244384766,0.0000243157730965046
226,0.0205855369567871,0.0000228197844026595
227,0.0200705528259277,0.0000303087127819722
228,0.0195837020874023,0.0000345558924064912
229,0.01910400390625,0.0000329949262466549
230,0.0186495780944824,0.0000327684632273267
231,0.0182523727416992,0.000038725959249639
232,0.017916202545166,0.0000364328241263113
233,0.0174298286437988,0.0000256219562957919
234,0.0171089172363281,0.000027976873592378
235,0.0167632102966309,0.000036502966749515
236,0.0164437294006348,0.0000363578561745339
237,0.016232967376709,0.0000223427595528309
238,0.0160150527954102,0.0000248144380313096
239,0.0157504081726074,0.0000247111397372163
240,0.0156068801879883,0.0000265272143993178
241,0.0155305862426758,0.0000429716006415091
242,0.0153322219848633,0.0000347568171389426
243,0.015143871307373,0.00002838783452801
244,0.0150661468505859,0.0000275437958499872
245,0.014955997467041,0.0000256491190528166
246,0.0148086547851562,0.000031306456650315
247,0.0147061347961426,0.0000251223502007983
248,0.0146303176879883,0.0000232112456357417
249,0.0144729614257812,0.000022268856866523
250,0.0143303871154785,0.0000200250317940714
251,0.0141782760620117,0.0000232894805173887
252,0.0140318870544434,0.0000172297636373971
253,0.0139679908752441,0.0000219746409122553
254,0.0138201713562012,0.0000276185053486459
255,0.0137009620666504,0.0000210751100619579
256,0.0135154724121094,0.0000290063417939638
257,0.0133957862854004,0.0000257436870028005
258,0.0132899284362793,0.0000315785385519209
259,0.013160228729248,0.0000317060855760119
260,0.0130562782287598,0.0000441158132074695
261,0.012901782989502,0.0000366963294187926
262,0.0127925872802734,0.0000395932798002813
263,0.012636661529541,0.0000444431672878448
264,0.0125436782836914,0.0000322685256355521
265,0.0124049186706543,0.0000308666898699229
266,0.0122466087341309,0.0000296560512646984
267,0.0121593475341797,0.0000310576234546214
268,0.0120139122009277,0.0000328178649085483
269,0.011894702911377,0.000055710417964687
270,0.0116381645202637,0.0000432675531635642
271,0.0115432739257812,0.0000416721303294862
272,0.0114250183105469,0.0000441480140651806
273,0.011284351348877,0.0000425007449480582
274,0.0111899375915527,0.0000437379516934851
275,0.0110278129577637,0.0000474794303375885
276,0.0109066963195801,0.0000477301848006423
277,0.0107769966125488,0.0000438184550421437
278,0.0106158256530762,0.0000406411026159293
279,0.0105080604553223,0.0000293913156634353
280,0.0103893280029297,0.0000243566488035777
281,0.0102114677429199,0.0000297799026082507
282,0.0101242065429687,0.0000369741020662089
283,0.00992345809936523,0.0000354458754593597
284,0.00980091094970703,0.0000332924890082868
285,0.00966882705688477,0.0000393072635533895
286,0.00953292846679688,0.0000276894209689292
287,0.00931787490844727,0.000031138963356664
288,0.00917577743530273,0.0000302368905305628
289,0.00899887084960938,0.0000228925293532021
290,0.00893545150756836,0.0000283271975731557
291,0.00875473022460938,0.000022802964150067
292,0.00868606567382813,0.0000361948929337419
293,0.00845813751220703,0.0000579254117682022
294,0.00835227966308594,0.000041090389027394
295,0.00826883316040039,0.0000385014633105308
296,0.00812959671020508,0.0000353149346566878
297,0.00798320770263672,0.0000378515306478703
298,0.00792837142944336,0.0000435295132560218
299,0.00780153274536133,0.0000379385319823332
300,0.00764846801757813,0.0000336795252841756
301,0.00753402709960938,0.0000290058518674908
302,0.00745916366577148,0.0000382147127943286
303,0.0073237419128418,0.0000362404082865931
304,0.00734090805053711,0.0000451965164606964
305,0.00719451904296875,0.0000308362888607497
306,0.0070805549621582,0.0000341321823145292
307,0.00695896148681641,0.0000408893076360183
308,0.00687122344970703,0.0000309971661447339
309,0.00683736801147461,0.0000389082758690364
310,0.00672817230224609,0.0000461843312101947
311,0.00654792785644531,0.0000442380517715224
312,0.00653648376464844,0.0000410813961055049
313,0.00639057159423828,0.0000282151037769776
314,0.0063633918762207,0.0000250220270370402
315,0.00628995895385742,0.0000305399216873282
316,0.00615501403808594,0.0000259164395174049
317,0.0060582160949707,0.0000261152702358596
318,0.00603628158569336,0.0000263735567356828
319,0.00588464736938477,0.000032365267228419
320,0.005767822265625,0.0000403124856813821
321,0.00581789016723633,0.0000552112776507635
322,0.0056767463684082,0.0000431912875493889
323,0.00557279586791992,0.000042340615772945
324,0.00553798675537109,0.0000434916268494551
325,0.00540924072265625,0.0000451562522955006
326,0.00536489486694336,0.00004362734276959
327,0.00527858734130859,0.0000429914382669291
328,0.00522327423095703,0.0000448898562997883
329,0.00500679016113281,0.0000507904325118539
330,0.00493907928466797,0.0000640365851417664
331,0.00493764877319336,0.0000399598358257258
332,0.00485801696777344,0.0000465093481069042
333,0.00481748580932617,0.0000476479396123345
334,0.00469017028808594,0.0000460240498047396
335,0.00455808639526367,0.00004370154673333
336,0.00449323654174805,0.0000574554149486588
337,0.00447893142700195,0.0000445300552833749
338,0.0044093132019043,0.0000547003097065749
339,0.00442409515380859,0.000057034388641666
340,0.00429630279541016,0.0000416154832055599
341,0.00419235229492188,0.0000391652863893385
342,0.0041651725769043,0.0000414203822780151
343,0.00407934188842773,0.0000358421716174433
344,0.0039973258972168,0.0000350231942517723
345,0.00397729873657227,0.0000369025444332552
346,0.0038914680480957,0.0000426955688502595
347,0.00388002395629883,0.0000635661669939416
348,0.00375795364379883,0.0000497055566045302
349,0.00371313095092773,0.0000428192068510775
350,0.00374937057495117,0.000044350982697787
351,0.0035548210144043,0.0000514487185717233
352,0.00350570678710937,0.0000684954627628404
353,0.00337600708007812,0.000042505425830968
354,0.00338459014892578,0.0000344133083057423
355,0.00331687927246094,0.0000415190741752856
356,0.00327253341674805,0.0000378920561200517
357,0.0032963752746582,0.0000440539215819172
358,0.00327777862548828,0.0000462642636792683
359,0.00320911407470703,0.0000497375671783649
360,0.00319051742553711,0.0000383950156235962
361,0.00309848785400391,0.0000403357451230797
362,0.00300216674804687,0.0000468041843862044
363,0.00299835205078125,0.0000686463358349226
364,0.00288724899291992,0.0000632020627051578
365,0.00292539596557617,0.0000476419742990576
366,0.00281953811645508,0.0000509279050794449
367,0.00282621383666992,0.0000585966711756585
368,0.00272130966186523,0.0000673590505683512
369,0.00277614593505859,0.0000454398541667993
370,0.00270986557006836,0.0000639584223922009
371,0.00278854370117187,0.0000971274101072385
372,0.00268173217773437,0.0000816534033890927
373,0.00261831283569336,0.0000846127349675038
374,0.00265598297119141,0.0000587787631577929
375,0.00244283676147461,0.0000508776533272072
376,0.00246572494506836,0.0000810973708710429
377,0.00248622894287109,0.0000663729234079125
378,0.00238895416259766,0.0000523588044632328
379,0.00241327285766602,0.0000651052997659387
380,0.00238704681396484,0.0000883835391547978
381,0.00238037109375,0.0000827116627008306
382,0.00239944458007812,0.0000742320754415955
383,0.0021815299987793,0.0000726437583923214
384,0.00214290618896484,0.0000678534417258993
385,0.00215339660644531,0.0000865245955647518
386,0.00218725204467773,0.0000800291302582064
387,0.00216865539550781,0.0000998151276639545
388,0.00213003158569336,0.0000783407317272676
389,0.00189924240112305,0.0000651052997659387
390,0.00205230712890625,0.0000648007487463348
391,0.00184726715087891,0.000041330395354825
392,0.00197124481201172,0.0000473499538194916
393,0.00197267532348633,0.0000692153403631659
394,0.0020442008972168,0.0000723803623636101
395,0.00195837020874023,0.0000811534257392331
396,0.00181245803833008,0.0000646672764135921
397,0.00184297561645508,0.0000746870696951542
398,0.00180864334106445,0.0000797088615707829
399,0.00167989730834961,0.0000613787783229588
400,0.00170516967773437,0.0000679589147618098
401,0.0015254020690918,0.0000954436950927491
402,0.0017857551574707,0.0000724196188734351
403,0.00151157379150391,0.0000614454219672619
404,0.00145053863525391,0.0000820852696778462
405,0.00149679183959961,0.0000455036083780593
406,0.00147914886474609,0.000081743853432082
407,0.00157022476196289,0.0000653162481496095
408,0.00151300430297852,0.0000600445724829948
409,0.00137710571289062,0.0000714110411129876
410,0.00132179260253906,0.0000571896549597318
411,0.00150156021118164,0.0000375681413819609
412,0.00145435333251953,0.0000549791382375381
413,0.00126838684082031,0.0000559537471847559
414,0.0012660026550293,0.0000779625108109563
415,0.00127220153808594,0.0000803410474071783
416,0.0011906623840332,0.0000676957637415987
417,0.00114965438842773,0.0000852458953097784
418,0.00111484527587891,0.0000657153575482421
419,0.00116682052612305,0.0000489321825515167
420,0.00106143951416016,0.0000557767004604254
421,0.00114631652832031,0.0000593532984802
422,0.000952720642089844,0.0000522794918267706
423,0.000975608825683594,0.0000624128657224891
424,0.000863552093505859,0.0000897569165485568
425,0.000941753387451172,0.0000711031199982129
426,0.000920295715332031,0.0000555244060331561
427,0.00102519989013672,0.0000394940934006665
428,0.000771045684814453,0.0000576440707525708
429,0.000866413116455078,0.0000600057457608771
430,0.000796318054199219,0.0000411152822378926
431,0.000761985778808594,0.0000484945968651081
432,0.000767230987548828,0.0000454110729826151
433,0.000737190246582031,0.0000459040906365669
434,0.000525474548339844,0.0000633906536179289
435,0.000633716583251953,0.0000718095229435279
436,0.000734806060791016,0.0000615286250141332
437,0.000656604766845703,0.0000659226293373261
438,0.000667572021484375,0.000068782003932332
439,0.000646114349365234,0.0000593255183052436
440,0.000594139099121094,0.0000364905068040227
441,0.000590801239013672,0.0000562111935542813
442,0.000522613525390625,0.0000565348720322733
443,0.000461578369140625,0.0000523131872249698
444,0.000541210174560547,0.0000573663044959985
445,0.000642776489257813,0.0000431023602442811
446,0.000395298004150391,0.0000385302422830135
447,0.000341415405273437,0.0000455248399411251
448,0.000432014465332031,0.000048174714376414
449,0.000440120697021484,0.0000443381641239484
450,0.000367164611816406,0.0000603297945434719
451,0.000426292419433594,0.0000589863176378222
452,0.000357151031494141,0.0000433882512419231
453,0.000227928161621094,0.000047487810152143
454,0.000411510467529297,0.0000374977173830748
455,0.000214576721191406,0.0000412849841291156
456,0.0001373291015625,0.0000764100859705792
457,0.000197410583496094,0.0000451738722836886
458,0.000142574310302734,0.0000403780006905455
459,0.000104904174804687,0.0000483913368630155
460,0.000100135803222656,0.0000583468281534977
461,0.000102043151855469,0.0000552102480794279
462,-0.0000119209289550781,0.0000739958477101822
463,0.0000829696655273438,0.0000713027024937391
464,-0.00000810623168945313,0.0000716573772373404
465,-0.000102043151855469,0.0000473091193558436
466,-0.0000171661376953125,0.0000553203035478673
467,-0.0000433921813964844,0.0000626020180979779
468,-0.00000762939453125,0.0000532981520706865
469,0.0000524520874023438,0.0000539247803448794
470,0.0000252723693847656,0.0000615304726928476
471,-0.000072479248046875,0.0000524585893242416
472,-0.0000371932983398437,0.0000606511748291682
473,-0.0000820159912109375,0.0000629190198838325
474,-0.00000143051147460937,0.0000562950645112675
475,-0.000172615051269531,0.0000775472692499394
476,-0.000215053558349609,0.0000792425314759425
477,-0.000126838684082031,0.0000654935446226311
478,-0.000339031219482422,0.0000554977820057164
479,-0.000340461730957031,0.0000567896840322853
480,-0.000315189361572266,0.0000476360082387626
481,-0.000182628631591797,0.0000462728635557485
482,-0.000268936157226562,0.0000564503504093367
483,-0.000320911407470703,0.0000656495850560113
484,-0.000340461730957031,0.0000436403701349165
485,0.000540256500244141,0.0000376112393011726
486,-0.00123167037963867,0.0000386517623724942
487,-0.000296592712402344,0.0000377236661948481
488,-0.000423431396484375,0.0000753960825226102
489,-0.000339508056640625,0.0000771681058459922
490,-0.000444889068603516,0.0000578596259095099
491,-0.000426292419433594,0.0000549191387838017
492,-0.000399112701416016,0.0000668814048670832
493,-0.000374794006347656,0.0000678132183710475
494,-0.000502586364746094,0.000058913033097976
495,-0.000440597534179688,0.0000470838967755592
496,-0.000581741333007813,0.0000605367261582281
497,-0.000400543212890625,0.0000578743605835456
498,-0.000387668609619141,0.0000598178863756498
499,-0.000567436218261719,0.0000608906301381014
500,-0.000666618347167969,0.0000432136552077612
501,-0.000679969787597656,0.000067436643470298
502,-0.000687599182128906,0.0000441261200385681
503,-0.000524044036865234,0.0000463612268384355
504,-0.000533580780029297,0.0000572949163470169
505,-0.000547409057617188,0.0000484922524887626
506,-0.000710010528564453,0.0000618842048950324
507,-0.000693798065185547,0.0000748057051723556
508,-0.000666141510009766,0.0000699017902866233
509,-0.000677108764648438,0.0000872494736593832
510,-0.000677585601806641,0.0000511462035343229
511,-0.000608444213867188,0.0000510549881527869
512,-0.000775814056396484,0.0000777156801475647
513,-0.000788211822509766,0.000065010936611764
514,-0.00078582763671875,0.0000446447940854852
515,-0.000799655914306641,0.0000658553375619942
516,-0.000792503356933594,0.0000694972777435572
517,-0.000879764556884766,0.0000680592133081887
518,-0.000858306884765625,0.0000520714036651648
519,-0.000889778137207031,0.0000640063972125924
520,-0.000831127166748047,0.0000956483518160866
521,-0.000926494598388672,0.0000489855905730466
522,-0.000932216644287109,0.0000431405885092185
523,-0.000848770141601563,0.000055888691757827
524,-0.000983238220214844,0.0000447300196407594
525,-0.000871658325195313,0.0000484347798217928
526,-0.000994682312011719,0.0000610323622183244
527,-0.000883579254150391,0.0000501269038274175
528,-0.000833511352539063,0.0000521183232048247
529,-0.000971794128417969,0.0000701842097968067
530,-0.000921249389648438,0.0000710007166037914
531,-0.000968456268310547,0.0000690064264022389
532,-0.0010685920715332,0.000048738962588397
533,-0.000995159149169922,0.000047699210510476
534,-0.000935554504394531,0.0000526068312166519
535,-0.00104999542236328,0.0000405872181676229
536,-0.00106191635131836,0.0000489054566688356
537,-0.00110530853271484,0.000045639568805319
538,-0.00112676620483398,0.000043289881415905
539,-0.0010528564453125,0.0000563475465649508
540,-0.00101518630981445,0.0000539932549462931
541,-0.00110006332397461,0.0000448961872858292
542,-0.00109386444091797,0.0000451612872793258
543,-0.00108623504638672,0.0000500497330897787
544,-0.00112056732177734,0.000056483570416376
545,-0.00118732452392578,0.0000542264700830655
546,-0.00114822387695312,0.0000686016059165091
547,-0.00101661682128906,0.0000504434217900135
548,-0.00111627578735352,0.0000429471216171177
549,-0.00118684768676758,0.000051877822905205
550,-0.00115251541137695,0.0000483302158884928
551,-0.00118112564086914,0.0000387743676344246
552,-0.00112771987915039,0.0000346216286953381
553,-0.00109529495239258,0.0000372726864735848
554,-0.00115585327148437,0.0000480376459880515
555,-0.00110578536987305,0.0000598539859180954
556,-0.00117635726928711,0.0000482902103468787
557,-0.00115394592285156,0.000036590844317226
558,-0.00117826461791992,0.0000437548437002352
559,-0.00116109848022461,0.0000513281480024434
560,-0.00117874145507812,0.0000457241833792635
561,-0.00130748748779297,0.0000369479572826586
562,-0.00133180618286133,0.0000441634621372922
563,-0.00115585327148437,0.0000469303218312092
564,-0.00124883651733398,0.0000383157275660803
565,-0.00128984451293945,0.0000478217986655461
566,-0.00129413604736328,0.0000465716382582038
567,-0.00132226943969727,0.0000377259263827532
568,-0.00140857696533203,0.0000360453883999256
569,-0.00132942199707031,0.0000484535539025683
570,-0.00137186050415039,0.0000341263529493006
571,-0.00140714645385742,0.0000358358273087615
572,-0.00137901306152344,0.0000346454272980551
573,-0.00128746032714844,0.000037139768470958
574,-0.00137948989868164,0.0000292541636807292
575,-0.00130939483642578,0.00002883879438105
576,-0.00124073028564453,0.0000293090045178019
577,-0.00133323669433594,0.0000288240075296543
578,-0.00134563446044922,0.0000277575957342999
579,-0.00131511688232422,0.0000428046016234286
580,-0.00130558013916016,0.0000403484264398693
581,-0.0012049674987793,0.0000282120816475678
582,-0.00143337249755859,0.0000293201542482544
583,-0.00143909454345703,0.0000312237325904786
584,-0.00118255615234375,0.0000251630451792016
585,-0.00131368637084961,0.0000333325886341483
586,-0.00144767761230469,0.0000403096654431192
587,-0.00131988525390625,0.0000352351686719236
588,-0.00142812728881836,0.0000359324563035203
589,-0.00137758255004883,0.0000286529143126253
590,-0.00138092041015625,0.0000351390487135675
591,-0.00147151947021484,0.0000349305594837421
592,-0.00128984451293945,0.0000295076103471702
593,-0.0014491081237793,0.0000432149705918329
594,-0.00129890441894531,0.0000333615668291317
595,-0.00140810012817383,0.0000270145189304656
596,-0.00147008895874023,0.0000363805190281152
597,-0.00135326385498047,0.0000455298341641604
598,-0.00133800506591797,0.0000330379679908622
599,-0.00127553939819336,0.0000303546272918029
600,-0.00123739242553711,0.0000265427453998424
601,-0.00133943557739258,0.0000253060853726107
602,-0.0014033317565918,0.0000245542200476244
603,-0.00144577026367187,0.0000308933812114014
604,-0.0014653205871582,0.0000260640691145016
605,-0.00135040283203125,0.0000298252017889701
606,-0.00140380859375,0.0000331650441723908
607,-0.00136613845825195,0.0000317087746973921
608,-0.00147294998168945,0.0000264365246372067
609,-0.00148487091064453,0.0000219513476051715
610,-0.00141000747680664,0.0000210413682694857
611,-0.00149726867675781,0.0000250032781976917
612,-0.00141668319702148,0.0000286454738652583
613,-0.00142002105712891,0.0000292303511593139
614,-0.00152969360351562,0.0000324783516176547
615,-0.00154495239257812,0.0000310759206303895
616,-0.00159549713134766,0.0000282558708874718
617,-0.00149345397949219,0.0000389433231145771
618,-0.00138664245605469,0.0000427008939812522
619,-0.00135421752929687,0.000039349178979358
620,-0.00126028060913086,0.0000357540437819376
621,-0.0013728141784668,0.0000320954270355695
622,-0.00140190124511719,0.0000256341553797066
623,-0.00153684616088867,0.0000280362407609732
624,-0.00150108337402344,0.0000364663535444626
625,-0.00151824951171875,0.0000412395228985074
626,-0.00147199630737305,0.0000319463103069345
627,-0.00140619277954102,0.0000358429645770704
628,-0.00142860412597656,0.0000392718173825893
629,-0.00142812728881836,0.0000431115908601369
630,-0.00155353546142578,0.0000453672404947903
631,-0.00149250030517578,0.0000424076889952547
632,-0.00148868560791016,0.0000324152833959852
633,-0.0014958381652832,0.0000398964837415573
634,-0.001495361328125,0.0000330052613843388
635,-0.00146627426147461,0.000034704442926271
636,-0.00148487091064453,0.0000331230256382544
637,-0.00155925750732422,0.0000426202803031137
638,-0.00167608261108398,0.0000412346983130044
639,-0.00163173675537109,0.0000352262946352783
640,-0.00141716003417969,0.0000336693971187649
641,-0.00132083892822266,0.000039750176277268
642,-0.00134658813476562,0.0000400748937999143
643,-0.00133323669433594,0.0000438508742583704
644,-0.00135087966918945,0.0000422108631064567
645,-0.00151872634887695,0.0000412374552881229
646,-0.0014805793762207,0.0000490794938609355
647,-0.00151586532592773,0.0000411788298526896
648,-0.00145435333251953,0.0000367945608345563
649,-0.00153064727783203,0.0000393159393768221
650,-0.0015254020690918,0.0000321882741938108
651,-0.00149202346801758,0.0000326885696803251
652,-0.00155162811279297,0.0000434628634075388
653,-0.00150823593139648,0.0000509647248734432
654,-0.00152969360351562,0.0000463072470905486
655,-0.000688552856445313,0.0000185242950961159
656,-0.00226449966430664,0.0000297139765675263
657,-0.00289583206176758,0.0000289430728111534
658,-0.00152015686035156,0.0000259766861877464
659,-0.00166749954223633,0.0000256574284336334
660,-0.0015711784362793,0.0000264649992536075
661,-0.00148630142211914,0.0000370853949599738
662,-0.00160741806030273,0.0000421859426550383
663,-0.00160312652587891,0.0000350686094257183
664,-0.0015716552734375,0.0000363750499769145
665,-0.00164794921875,0.0000349866571959746
666,-0.00161600112915039,0.0000365060810714002
667,-0.00161218643188477,0.0000412698359498362
668,-0.0015873908996582,0.000033404136154639
669,-0.00166797637939453,0.0000450831818396512
670,-0.00154018402099609,0.0000384985104046469
671,-0.00156736373901367,0.0000277063521598528
672,-0.00159645080566406,0.0000362952645960768
673,-0.00158357620239258,0.0000417518517697646
674,-0.0016636848449707,0.000026013859796999
675,-0.00165224075317383,0.0000265320353379127
676,-0.00157690048217773,0.0000343364143525794
677,-0.0016179084777832,0.0000419305013726856
678,-0.00162458419799805,0.0000390766523752724
679,-0.00165700912475586,0.0000336879630959788
680,-0.00159025192260742,0.0000364663535444626
681,-0.00151729583740234,0.0000339551920146797
682,-0.00155878067016602,0.0000409601453571243
683,-0.00155019760131836,0.0000351398575397416
684,-0.00161170959472656,0.0000457701579492164
685,-0.00162744522094727,0.0000420043197542898
686,-0.00161123275756836,0.0000356457703212547
687,-0.00162315368652344,0.0000282965792645214
688,-0.00161552429199219,0.0000419467661139384
689,-0.00161886215209961,0.0000515006206180596
690,-0.00157833099365234,0.0000347895109822533
691,-0.00163650512695312,0.0000344743702124023
692,-0.00157642364501953,0.0000389615644023424
693,-0.00160789489746094,0.0000438430958327202
694,-0.00164699554443359,0.000043440624067123
695,-0.00161600112915039,0.0000329699362886135
696,-0.00167703628540039,0.00003165135722213
697,-0.00159168243408203,0.0000290293590113781
698,-0.00164556503295898,0.0000332189899055475
699,-0.00157737731933594,0.0000405928198815641
700,-0.00167131423950195,0.0000326381014988853
701,-0.00159645080566406,0.0000330775169296734
702,-0.00157833099365234,0.0000266282708201212
703,-0.00162649154663086,0.0000421320102082171
704,-0.00166130065917969,0.0000398779573956586
705,-0.00159454345703125,0.0000380597010344271
706,-0.00155544281005859,0.000039830890278842
707,-0.00161933898925781,0.0000353052756508117
708,-0.00168228149414062,0.0000469400106719485
709,-0.00166940689086914,0.0000533301380017122
710,-0.00164318084716797,0.0000318349071754473
711,-0.00168323516845703,0.0000263827152497728
712,-0.00168418884277344,0.0000361107744124511
713,-0.00168657302856445,0.0000409712460437625
714,-0.00168561935424805,0.0000313345875029932
715,-0.00175046920776367,0.0000270103102419991
716,-0.00162172317504883,0.0000318741654839656
717,-0.00168943405151367,0.0000388870861849287
718,-0.0016789436340332,0.0000337486530651819
719,-0.00171232223510742,0.0000334390025630394
720,-0.00182533264160156,0.0000339828029682099
721,-0.00176000595092773,0.0000342261475466277
722,-0.00173234939575195,0.0000370654635806281
723,-0.00177907943725586,0.0000498209266069595
724,-0.00177288055419922,0.0000453359056286416
725,-0.00179433822631836,0.0000508441245666776
726,-0.00185680389404297,0.0000374484176797231
727,-0.00179481506347656,0.0000389513503336383
728,-0.0017399787902832,0.0000440332717083589
729,-0.00175333023071289,0.0000534759639094942
730,-0.00180482864379883,0.0000490018336342453
731,-0.00187778472900391,0.0000299217691450081
732,-0.00186777114868164,0.0000324135297492315
733,-0.00186634063720703,0.00003304226908158
734,-0.00181436538696289,0.0000294483140118494
735,-0.00186061859130859,0.0000334500501771843
736,-0.00191354751586914,0.0000387567715811941
737,-0.0019989013671875,0.0000366699865908248
738,-0.00199031829833984,0.0000361194311454985
739,-0.00190258026123047,0.0000441531640230943
740,-0.00188541412353516,0.0000385862627138357
741,-0.00192499160766602,0.0000368724950649235
742,-0.00194215774536133,0.0000409677774022977
743,-0.00193643569946289,0.0000320058627643534
744,-0.00197315216064453,0.0000254499967821113
745,-0.00202465057373047,0.0000317042927017095
746,-0.001983642578125,0.0000406753555529964
747,-0.00187301635742187,0.0000411629521463532
748,-0.00195455551147461,0.0000465423356305598
749,-0.00195455551147461,0.0000379085540771484
750,-0.00196743011474609,0.0000337494952130083
751,-0.00203895568847656,0.0000353165442341666
752,-0.00202465057373047,0.0000357325744167905
753,-0.00192928314208984,0.0000333947755589133
754,-0.00202035903930664,0.0000485976374613916
755,-0.00191497802734375,0.000032618066632125
756,-0.00193214416503906,0.000027711993591395
757,-0.00185298919677734,0.0000381641051443694
758,-0.00196599960327148,0.0000384112975562026
759,-0.00196075439453125,0.0000443445738740468
760,-0.00188970565795898,0.0000400081720614863
761,-0.00193023681640625,0.0000353969297896008
762,-0.00197315216064453,0.0000319062499892766
763,-0.00198221206665039,0.0000376452291216139
764,-0.00190877914428711,0.0000376686264894738
765,-0.00194263458251953,0.00003804252152784
766,-0.00194597244262695,0.0000369986920445301
767,-0.00194263458251953,0.00002419743035894
768,-0.00189018249511719,0.0000345641162797142
769,-0.00193119049072266,0.0000406984076124003
770,-0.00193929672241211,0.0000503678645939836
771,-0.00189590454101562,0.0000422216349623484
772,-0.00200653076171875,0.0000435425698906644
773,-0.00194358825683594,0.0000395386861884654
774,-0.00187015533447266,0.0000312846605534628
775,-0.00189638137817383,0.0000527029109178471
776,-0.00198698043823242,0.0000362513861892621
777,-0.00197553634643555,0.0000286811704092456
778,-0.00194835662841797,0.000042415730654376
779,-0.0018620491027832,0.0000427474605809327
780,-0.00191116333007812,0.0000375371105270732
781,-0.00183534622192383,0.0000300568204565091
782,-0.00189018249511719,0.0000367559183814637
783,-0.00199079513549805,0.0000345706939697266
784,-0.00191736221313477,0.0000240578405273779
785,-0.00192785263061523,0.0000345295628499037
786,-0.00188350677490234,0.0000560369890760447
787,-0.0018916130065918,0.0000510928289270006
788,-0.00201177597045898,0.0000411367059873084
789,-0.00197553634643555,0.0000542138895082887
790,-0.00195550918579102,0.0000516978129904687
791,-0.00187253952026367,0.0000419325348103519
792,-0.0019068717956543,0.000034897997780572
793,-0.00183725357055664,0.0000361076259949542
794,-0.00187349319458008,0.0000305427134833289
795,-0.00196552276611328,0.0000423694702709767
796,-0.00207376480102539,0.0000581457897616254
797,-0.00192499160766602,0.0000441299844796175
798,-0.00200080871582031,0.0000412849841291156
799,-0.0019841194152832,0.0000347854259322783
800,-0.00203323364257812,0.0000370577948110551
801,-0.00187826156616211,0.000029572554830003
802,-0.00195121765136719,0.0000517197989627947
803,-0.00198030471801758,0.0000443548275475462
804,-0.00201892852783203,0.0000659812379674068
805,-0.00193691253662109,0.0000530865615790017
806,-0.00195407867431641,0.0000294468662681141
807,-0.00198888778686523,0.0000361422435028786
808,-0.00195646286010742,0.0000510772508269155
809,-0.00210380554199219,0.0000483690131538068
810,-0.00208091735839844,0.000036866328064535
811,-0.00208806991577148,0.0000365488760870836
812,-0.00201988220214844,0.0000419630245510272
813,-0.00200605392456055,0.0000392841186569341
814,-0.00197887420654297,0.0000462728635557485
815,-0.00201940536499023,0.0000382169439412625
816,-0.00216007232666016,0.0000381566571817013
817,-0.00208806991577148,0.00003457809237535
818,-0.00202369689941406,0.0000400131445356838
819,-0.00205898284912109,0.0000452116062779753
820,-0.00212287902832031,0.0000513192876281321
821,-0.00209665298461914,0.0000377530380832576
822,-0.0020747184753418,0.0000423526967921956
823,-0.00211095809936523,0.0000498619840573359
824,-0.00209379196166992,0.000040318830496201
825,-0.00209474563598633,0.0000430515564802889
826,-0.00214910507202148,0.0000518898743937462
827,-0.00215673446655273,0.0000507982661377851
828,-0.00216197967529297,0.0000477873153599792
829,-0.00215768814086914,0.0000464114696417972
830,-0.00228023529052734,0.000043440624067123
831,-0.00226020812988281,0.0000463747119579174
832,-0.00224733352661133,0.0000523685744159467
833,-0.00224065780639648,0.0000362521701979603
834,-0.0022892951965332,0.0000332275446660369
835,-0.00229978561401367,0.0000447173097210186
836,-0.00223255157470703,0.0000486572542952503
837,-0.0022587776184082,0.0000370853949599738
838,-0.00227689743041992,0.0000274864672171416
839,-0.00224399566650391,0.0000284448452986607
840,-0.00224590301513672,0.0000290714284413837
841,-0.00225734710693359,0.0000477694693999031
842,-0.00215339660644531,0.0000516604153633605
843,-0.00229072570800781,0.0000430258018175134
844,-0.00224447250366211,0.0000427401463323527
845,-0.00228166580200195,0.0000496002335508188
846,-0.00226163864135742,0.0000444393300811589
847,-0.00224876403808594,0.0000435125337737966
848,-0.00215244293212891,0.0000397951963113905
849,-0.00231695175170898,0.0000321591225432775
850,-0.00224685668945312,0.0000341463352012027
851,-0.00216007232666016,0.0000524032972737941
852,-0.00214242935180664,0.0000487809307040276
853,-0.00223398208618164,0.0000508441245666776
854,-0.00219917297363281,0.0000553798683748529
855,-0.00231838226318359,0.0000431451999746639
856,-0.00221872329711914,0.0000493854607110416
857,-0.00220966339111328,0.0000396635659061527
858,-0.00223350524902344,0.0000426076081018124
859,-0.0021820068359375,0.0000405641029207329
860,-0.00225973129272461,0.0000540185159348229
861,-0.00219154357910156,0.0000369056250363521
862,-0.00211811065673828,0.0000357961499041494
863,-0.00219869613647461,0.0000419257563012615
864,-0.00222015380859375,0.000036692456659622
865,-0.00224161148071289,0.000036885596517251
866,-0.00218534469604492,0.0000550029130011304
867,-0.00219011306762695,0.0000494234296188219
868,-0.00213241577148437,0.0000448999854489666
869,-0.0021672248840332,0.0000389206920444854
870,-0.00216102600097656,0.0000376036818354461
871,-0.00223684310913086,0.0000488787161729905
872,-0.00226211547851562,0.0000507971471223288
873,-0.00223827362060547,0.0000460672573499813
874,-0.00213479995727539,0.00005503700667964
875,-0.00218105316162109,0.000051023804090101
876,-0.00219964981079102,0.0000333981797154521
877,-0.00223207473754883,0.0000449708256120546
878,-0.00220870971679687,0.0000458483328974204
879,-0.00228738784790039,0.0000596008299560469
880,-0.00224971771240234,0.000060128768598923
881,-0.00225591659545898,0.0000601041841758298
882,-0.00224399566650391,0.0000440487600210814
883,-0.0022120475769043,0.0000536860196877959
884,-0.00225973129272461,0.0000428311528784232
885,-0.00228023529052734,0.0000428484023714448
886,-0.00219154357910156,0.0000474470943321447
887,-0.00226020812988281,0.0000473259378137777
888,-0.0022273063659668,0.000041336583929443
889,-0.00214719772338867,0.0000573583768670789
890,-0.00232696533203125,0.0000555622720767472
891,-0.00234508514404297,0.000053076923787477
892,-0.00222444534301758,0.0000515888444439593
893,-0.00229930877685547,0.0000660518439137375
894,-0.00224685668945312,0.0000514686021351987
895,-0.00223016738891602,0.0000503847902280409
896,-0.00227212905883789,0.0000527578889640054
897,-0.00230264663696289,0.0000606549235883553
898,-0.00234365463256836,0.0000628593647108566
899,-0.0023193359375,0.0000823438545089591
900,-0.00235128402709961,0.0000592037067572221
901,-0.00232410430908203,0.0000611709782230861
902,-0.0023045539855957,0.0000594881827306774
903,-0.00233364105224609,0.0000624201514127868
904,-0.00229263305664062,0.0000621902421549344
905,-0.00235843658447266,0.0000667674193056764
906,-0.00234270095825195,0.0000774034647023579
907,-0.00236177444458008,0.0000645370512711041
908,-0.00241994857788086,0.0000575177101221791
909,-0.00240278244018555,0.0000451537345930485
910,-0.00238513946533203,0.0000563344306352599
911,-0.00242137908935547,0.0000693712032529061
912,-0.00244617462158203,0.0000676840070683632
913,-0.00246191024780273,0.0000561363113751293
914,-0.00246715545654297,0.0000488461427675058
915,-0.00262784957885742,0.0000759534389830091
916,-0.00239944458007812,0.0000569536026417394
917,-0.00248622894287109,0.0000617186453569784
918,-0.00259733200073242,0.000047433914084213
919,-0.00255107879638672,0.0000534919061037776
920,-0.00261068344116211,0.0000526154747708226
921,-0.00277566909790039,0.000050385918401488
922,-0.00266742706298828,0.0000576312498913308
923,-0.00275278091430664,0.0000664892951657841
924,-0.0026702880859375,0.0000542002572570146
925,-0.00278186798095703,0.0000475547955095844
926,-0.00280570983886719,0.0000598872162452373
927,-0.00287103652954102,0.0000509479919021343
928,-0.00291299819946289,0.0000482749053490052
929,-0.00286483764648437,0.0000598663307642446
930,-0.00290822982788086,0.0000822665025971556
931,-0.00300455093383789,0.0000728594070835959
932,-0.00302743911743164,0.0000777259194640158
933,-0.00317192077636719,0.0000809879522861945
934,-0.00330829620361328,0.0000659347000787491
935,-0.00324249267578125,0.000034638043274629
936,-0.00334835052490234,0.000107170676219474
937,-0.00326681137084961,0.0000995893554695168
938,-0.00353097915649414,0.0000802971687828639
939,-0.00350379943847656,0.0000725732996216034
940,-0.00365209579467773,0.0000793486259912454
941,-0.00367832183837891,0.0000858015434797124
942,-0.00371694564819336,0.0000659605585149659
943,-0.00377321243286133,0.0000544785148986324
944,-0.00371170043945312,0.0000824707751481299
945,-0.00393772125244141,0.000100428290313591
946,-0.00383138656616211,0.0000920036259578971
947,-0.00407075881958008,0.0000723017854006064
948,-0.00419282913208008,0.0000687803510551661
949,-0.00424385070800781,0.0000699017902866233
950,-0.00438928604125977,0.0000693695644146665
951,-0.00456476211547852,0.0000830039140017227
952,-0.00455713272094727,0.0000920382184329589
953,-0.00487279891967773,0.000066362645514325
954,-0.00493478775024414,0.0000836628425577595
955,-0.00514793395996094,0.000114843534505692
956,-0.00510644912719727,0.00011706910634756
957,-0.00502634048461914,0.0000974102572812379
958,-0.00536298751831055,0.000117644530787579
959,-0.00562238693237305,0.000151135566413161
960,-0.00566291809082031,0.000133538244026428
961,-0.00539922714233398,0.0000993264505430544
962,-0.00536680221557617,0.0000930529113366646
963,-0.00554227828979492,0.000124347575066189
964,-0.00562810897827148,0.000129376738602536
965,-0.00554466247558594,0.000126252937166912
966,-0.00552511215209961,0.000110882839636787
967,-0.00539827346801758,0.000171796427690547
968,-0.00518941879272461,0.00015913221226849
969,-0.00530099868774414,0.000134312424628796
970,-0.00542449951171875,0.000158071338141384
971,-0.00530862808227539,0.000148574378365621
972,-0.00497531890869141,0.000140378138267018
973,-0.0047755241394043,0.00012927124835158
974,-0.00505161285400391,0.000144127925776005
975,-0.0049738883972168,0.000203197540514366
976,-0.00491857528686523,0.000198785627756712
977,-0.00456905364990234,0.000189615781385642
978,-0.0047149658203125,0.000192689417730134
979,-0.00474739074707031,0.000192783794685261
980,-0.00444316864013672,0.000164386454974482
981,-0.00457239151000977,0.000180962057437564
982,-0.0043187141418457,0.000198652901086109
983,-0.00401401519775391,0.000120785779424316
984,-0.00419855117797852,0.000156460727957274
985,-0.00362062454223633,0.000200158041589883
986,-0.00414609909057617,0.00017870136532397
987,-0.00402927398681641,0.000152149165769078
988,-0.00371026992797852,0.000214061117591971
989,-0.00400209426879883,0.000166860304762321
990,-0.00384807586669922,0.000171218406493714
991,-0.00366449356079102,0.00022603892000317
992,-0.00383472442626953,0.000196789949950426
993,-0.00345706939697266,0.000160211608422847
994,-0.00311040878295898,0.000156666950939712
995,-0.00289344787597656,0.000157298453144754
996,-0.00295352935791016,0.000239050980131429
997,-0.00321483612060547,0.000283919591447188
998,-0.0029139518737793,0.000229104251878308
999,-0.00263643264770508,0.000272744185359489
1000,-0.00295352935791016,0.000243726766998615
1001,-0.00300359725952148,0.000195365950601948
1002,-0.00319194793701172,0.000157849665345769
1003,-0.00271081924438477,0.000178395735948027
1004,-0.00276899337768555,0.000237883921996237
1005,-0.0021519660949707,0.000214044121870024
1006,-0.00271320343017578,0.000229884969367764
1007,-0.00300025939941406,0.000240499948137107
1008,-0.00249004364013672,0.000282583854485112
1009,-0.00234079360961914,0.000289559143469936
1010,-0.00196695327758789,0.000322353204834326
1011,-0.002532958984375,0.00020488688941714
1012,-0.00280237197875977,0.000209004857661619
1013,-0.00246572494506836,0.00021613719222259
1014,-0.00244808197021484,0.000296272092269098
1015,-0.00192737579345703,0.000211981872397611
1016,-0.00233602523803711,0.000197458952354674
1017,-0.00265693664550781,0.000384726923603396
1018,-0.00184392929077148,0.000346707507481341
1019,-0.0025019645690918,0.000294121570194765
1020,-0.00224208831787109,0.000339941755021751
1021,-0.00219392776489258,0.000335855878157113
1022,-0.00235700607299805,0.000251502559666703
1023,-0.00270700454711914,0.000216943614396335
1024,-0.00299358367919922,0.00022114553828584
1025,-0.00239086151123047,0.000256678390591088
1026,-0.00267744064331055,0.000380103525825321
1027,-0.00237226486206055,0.00033419447837706
1028,-0.00216150283813477,0.000350962514309593
1029,-0.00223875045776367,0.000472606968675032
1030,-0.00248098373413086,0.000215762359564751
1031,-0.00188398361206055,0.000247139689633743
1032,-0.00218629837036133,0.000325184762843733
1033,-0.00245857238769531,0.00027857086339758
1034,-0.00286531448364258,0.000350059535133779
1035,-0.00292444229125977,0.000388303579224713
1036,-0.00223302841186523,0.0003652958563194
1037,-0.00268077850341797,0.000231662390910171
1038,-0.00277137756347656,0.000491119124968862
1039,-0.0024566650390625,0.000397754223563754
1040,-0.00317859649658203,0.000459461243434001
1041,-0.00319957733154297,0.000462649025822003
1042,-0.00201559066772461,0.00035594416687983
1043,-0.00269985198974609,0.000475362404512278
1044,-0.0032958984375,0.000460157493134651
1045,-0.00289201736450195,0.000524559019609032
1046,-0.00233650207519531,0.000433971066876035
1047,-0.00335264205932617,0.000557272305869022
1048,-0.00162220001220703,0.000505630891705775
1049,-0.00349187850952148,0.000492982287946489
1050,-0.0039820671081543,0.000402933888129168
1051,-0.00262832641601562,0.000495954658315742
1052,-0.00301694869995117,0.000482600666421019
1053,-0.00351715087890625,0.000467304307571081
1054,-0.00475931167602539,0.000558615494018112
1055,-0.00303936004638672,0.000642207428641536
1056,-0.00325965881347656,0.000630395314839403
1057,-0.00283098220825195,0.000504290859059471
1058,-0.00338172912597656,0.000399897827453635
1059,-0.0022578239440918,0.000914127551315317
1060,-0.00345993041992187,0.000643079216640499
1061,-0.00398159027099609,0.00092172116980273
1062,-0.00192403793334961,0.000785623912884499
1063,-0.00309228897094727,0.000743973553042151
1064,-0.00264215469360352,0.000821126324137249
1065,-0.00498294830322266,0.00103997910913303
1066,-0.0034637451171875,0.00081988485292703
1067,-0.00303125381469727,0.00104045474561303
1068,-0.00305318832397461,0.000769226869665805
1069,-0.00225543975830078,0.000847532677542668
1070,-0.00421285629272461,0.000760302755835887
1071,-0.00278472900390625,0.00123723282639217
1072,-0.00152301788330078,0.000621315706527781
1073,-0.000669479370117188,0.000869617117234803
1074,-0.00245332717895508,0.000937096513903998
1075,-0.00368404388427734,0.000993990360287863
1076,-0.00365018844604492,0.00110618327944465
1077,-0.00118303298950195,0.0013911045592367
1078,-0.00342893600463867,0.000926256885552843
1079,-0.00167083740234375,0.00121532686783401
1080,-0.00336456298828125,0.00107850066668214
1081,-0.00284099578857422,0.00124670002876049
1082,-0.00146770477294922,0.00141405430153846
1083,-0.00228404998779297,0.000999596272122191
1084,-0.00197744369506836,0.00148923748815457
1085,-0.00277566909790039,0.00169307249382435
1086,-0.0052943229675293,0.00121158532533897
1087,-0.00288963317871094,0.00134582606032294
1088,-0.0042872428894043,0.000935137847450031
1089,-0.000130176544189453,0.00147118784096606
1090,-0.00351762771606445,0.0023092754409659
1091,-0.00333023071289062,0.00204678327413141
1092,0.000416278839111328,0.00238945036434746
1093,-0.00248384475708008,0.00203371668475905
1094,-0.00391292572021484,0.00231431115596274
1095,-0.00523948669433594,0.0022068345142552
1096,-0.00471687316894531,0.00207816640554495
1097,-0.00750637054443359,0.00185831754731913
1098,-0.00185632705688477,0.00215175978670967
1099,-0.00302028656005859,0.0025556535789849
1100,-0.000681400299072266,0.00201034183972375
