Wavelength (nm),Absorbance (AU),Std.Dev.
190,0.186936855316162,0.0000501110254494463
191,0.179913997650146,0.0000425742421801561
192,0.172691345214844,0.0000457415845968263
193,0.165224075317383,0.0000435334306575916
194,0.157955169677734,0.0000462372250827728
195,0.15093469619751,0.0000360713994422714
196,0.144453525543213,0.0000292954252053197
197,0.13847541809082,0.000030053510676605
198,0.132784366607666,0.0000321635411583962
199,0.127613544464111,0.0000317938125678842
200,0.12281322479248,0.0000293622910186156
201,0.118422031402588,0.0000320413637045157
202,0.114443302154541,0.0000310841508456643
203,0.110839366912842,0.0000337646502820978
204,0.107547760009766,0.0000382555964793436
205,0.104575157165527,0.0000292517347197007
206,0.101709365844727,0.0000373929728309766
207,0.0989189147949219,0.0000412443469196512
208,0.0963754653930664,0.0000312583033256514
209,0.0939688682556152,0.0000285669834402443
210,0.0916962623596191,0.0000448581879668874
211,0.0894289016723633,0.0000355755354272552
212,0.0873007774353027,0.0000272679361230145
213,0.0851812362670898,0.0000340996917319892
214,0.0832009315490723,0.0000252493042326594
215,0.0812921524047852,0.0000298323480033711
216,0.0794763565063477,0.000033805871327279
217,0.0777144432067871,0.0000387318301549976
218,0.0761065483093262,0.0000308519537278311
219,0.0744094848632813,0.0000235895877229315
220,0.0727519989013672,0.000021051158957142
221,0.0711612701416016,0.0000241733395683986
222,0.0696249008178711,0.0000386252815060391
223,0.0682168006896973,0.0000305650386712888
224,0.0668129920959473,0.0000256590899868898
225,0.0654573440551758,0.0000265411391660675
226,0.0642285346984863,0.0000277627148896344
227,0.06304931640625,0.0000294868942904287
228,0.0619049072265625,0.0000321829758577852
229,0.0609660148620606,0.0000335238905006122
230,0.0599122047424316,0.0000526370774465443
231,0.0589976310729981,0.0000465032367383237
232,0.0581674575805664,0.0000310228290897581
233,0.0572638511657715,0.0000286082426017033
234,0.0564670562744141,0.0000346224496091296
235,0.0556926727294922,0.0000304653794192568
236,0.0549345016479492,0.0000235721110502305
237,0.0542335510253906,0.0000240318358771403
238,0.053584098815918,0.0000251432711249049
239,0.0529427528381348,0.0000237803858786343
240,0.0524272918701172,0.0000247456204140865
241,0.0519380569458008,0.0000328732449868099
242,0.0513997077941895,0.0000312255530570627
243,0.0509467124938965,0.0000195532308138015
244,0.0505561828613281,0.0000264945160271351
245,0.0501341819763184,0.0000301663105556957
246,0.0497798919677734,0.0000292104114796447
247,0.0494694709777832,0.0000245293209983818
248,0.0491542816162109,0.0000335679473914894
249,0.0488047599792481,0.0000287697240520695
250,0.0484952926635742,0.0000209242018466812
251,0.0481061935424805,0.0000251709504513152
252,0.0477590560913086,0.0000235347035965978
253,0.0474824905395508,0.0000274243555065083
254,0.0471429824829102,0.0000306114971852149
255,0.0467772483825684,0.0000245802501832575
256,0.0464320182800293,0.0000306189240057731
257,0.046135425567627,0.0000261603964299989
258,0.0457916259765625,0.0000317714562481833
259,0.0454998016357422,0.0000291816938842447
260,0.0451087951660156,0.0000405381701519193
261,0.0448069572448731,0.0000314893092748624
262,0.0445089340209961,0.0000295215734332354
263,0.0440783500671387,0.0000332566143913469
264,0.0437159538269043,0.0000316477651711371
265,0.0432486534118652,0.0000210953292320018
266,0.042844295501709,0.0000280681556875647
267,0.0425152778625488,0.0000493128934343278
268,0.0421252250671387,0.0000446702515740599
269,0.0416665077209473,0.0000368455068176932
270,0.0412421226501465,0.0000369579560014668
271,0.0408148765563965,0.0000392624079252184
272,0.0403041839599609,0.0000411470683131759
273,0.0399322509765625,0.000046626531049934
274,0.0395221710205078,0.0000623527262948768
275,0.0391116142272949,0.0000422330770488539
276,0.0386567115783691,0.0000290518688425595
277,0.0382461547851562,0.0000339585399926029
278,0.0378384590148926,0.000036805373451059
279,0.0373272895812988,0.0000261256072077024
280,0.0368843078613281,0.0000305157154230039
281,0.0363545417785645,0.0000221203107924332
282,0.0358691215515137,0.0000302439394689034
283,0.0354290008544922,0.000036187039673016
284,0.0348329544067383,0.0000315280964477551
285,0.0344123840332031,0.0000214805084145579
286,0.0339579582214355,0.0000204894380107532
287,0.033322811126709,0.0000344620015416816
288,0.032771110534668,0.0000348246226310543
289,0.0323052406311035,0.0000269918895140554
290,0.0317826271057129,0.0000258236048677478
291,0.0313539505004883,0.0000234002703806209
292,0.0308794975280762,0.0000375159039740962
293,0.0303940773010254,0.0000582151580989125
294,0.0299019813537598,0.0000430185348940717
295,0.0295548439025879,0.0000467300415039063
296,0.0290994644165039,0.0000421380810544934
297,0.0287132263183594,0.000040991358376193
298,0.0283112525939941,0.0000489890716823999
299,0.0279140472412109,0.0000428550349430944
300,0.0275626182556152,0.000031441435994692
301,0.0271792411804199,0.0000373130789155461
302,0.0268545150756836,0.000047365557693311
303,0.0264463424682617,0.0000388790456974783
304,0.0262241363525391,0.000056803695550685
305,0.0259075164794922,0.0000505076128087177
306,0.0254650115966797,0.0000455423173256825
307,0.025200366973877,0.000039710831344062
308,0.0249614715576172,0.0000434340809175525
309,0.0246214866638184,0.0000350629357459063
310,0.0242986679077148,0.0000443612348899484
311,0.0239601135253906,0.0000462753203697647
312,0.0237240791320801,0.0000550917190388354
313,0.0234222412109375,0.0000442303414356431
314,0.0231356620788574,0.0000352174183625656
315,0.0228400230407715,0.0000237684311292971
316,0.0225520133972168,0.0000273371620283277
317,0.0222244262695312,0.0000361280858042863
318,0.0220117568969727,0.0000415683322558272
319,0.0215888023376465,0.0000531336545057922
320,0.0214338302612305,0.0000471647151342914
321,0.0211291313171387,0.0000554475712047486
322,0.0207910537719727,0.000047948815618785
323,0.0204558372497559,0.0000400734753451293
324,0.020256519317627,0.0000555786385919449
325,0.0199871063232422,0.0000535895811486313
326,0.0196990966796875,0.0000497387100321278
327,0.0194168090820312,0.0000438625393104743
328,0.0191144943237305,0.0000434811696175537
329,0.018761157989502,0.0000483019801221752
330,0.018488883972168,0.0000579881822971712
331,0.0182299613952637,0.0000352271014582565
332,0.0179567337036133,0.0000391906771773471
333,0.0176634788513184,0.0000412877377464154
334,0.0174050331115723,0.0000263439044348328
335,0.0170588493347168,0.0000373267871601249
336,0.0167717933654785,0.0000529901047827441
337,0.0165095329284668,0.0000422700743440531
338,0.0161914825439453,0.0000569496102403016
339,0.0160408020019531,0.0000611765534971986
340,0.0157556533813477,0.0000490377812659547
341,0.0155191421508789,0.0000468138993329929
342,0.015235424041748,0.0000408197395516785
343,0.0149545669555664,0.0000483901621877022
344,0.0147337913513184,0.0000382600538748121
345,0.014495849609375,0.0000466448142917976
346,0.0142269134521484,0.0000554670460942565
347,0.0140161514282227,0.0000655091653916882
348,0.0137057304382324,0.0000505728463527929
349,0.0134906768798828,0.0000453409206624654
350,0.0133571624755859,0.0000405023977673428
351,0.0130572319030762,0.0000508251151175338
352,0.0128269195556641,0.0000733973057562503
353,0.0125522613525391,0.0000570752367325374
354,0.0123553276062012,0.0000529804494445517
355,0.0120878219604492,0.0000569056753379003
356,0.0118536949157715,0.0000383172110905245
357,0.0117630958557129,0.0000544931206785647
358,0.0116243362426758,0.0000509189750591975
359,0.0113096237182617,0.0000442740155847208
360,0.011164665222168,0.0000360209366746175
361,0.0109376907348633,0.0000498984512078392
362,0.0107612609863281,0.0000597503787851751
363,0.0105123519897461,0.0000821129646986005
364,0.0103187561035156,0.0000743009612304018
365,0.0101504325866699,0.000048908943481745
366,0.0100216865539551,0.000047433914084213
367,0.00985097885131836,0.0000796960240528425
368,0.00972557067871094,0.0000684772028390893
369,0.00966072082519531,0.0000513558268193958
370,0.00951337814331055,0.0000540437651159321
371,0.00945329666137695,0.0000825575756371656
372,0.00924205780029297,0.0000670206457621907
373,0.00902986526489258,0.0000598596838557463
374,0.00900030136108398,0.0000807714854976226
375,0.00870227813720703,0.0000776586078130189
376,0.0086359977722168,0.0000722970680670317
377,0.00857639312744141,0.0000610239793557357
378,0.00844240188598633,0.0000581027593677219
379,0.00837421417236328,0.0000519030182807456
380,0.00812959671020508,0.0000791506593749375
381,0.00789976119995117,0.0000803891448110225
382,0.00805187225341797,0.0000848971032360646
383,0.00776147842407227,0.0000824487160283671
384,0.00763034820556641,0.0000764324004801822
385,0.00755453109741211,0.0000824652609213821
386,0.00735187530517578,0.0000691709783966653
387,0.00744390487670898,0.0000973378706142655
388,0.00724506378173828,0.0000916768266198369
389,0.00688266754150391,0.0000580048443008963
390,0.00691986083984375,0.0000635178596700543
391,0.0067596435546875,0.0000512084035963512
392,0.00693941116333008,0.0000631300703561225
393,0.00661277770996094,0.0000711318943909006
394,0.00650405883789063,0.0000652117309371157
395,0.00647735595703125,0.0000745057106017456
396,0.00622940063476563,0.0000590614361644918
397,0.00621938705444336,0.0000774783350710169
398,0.00606298446655273,0.000066826988256097
399,0.00586509704589844,0.0000668831046727808
400,0.00583553314208984,0.0000751302302197873
401,0.00572061538696289,0.0000834056209148142
402,0.00576257705688477,0.000054742899469628
403,0.00555038452148438,0.0000721175807420666
404,0.00549745559692383,0.000089678352462716
405,0.00543928146362305,0.0000493405506958595
406,0.00513839721679688,0.0000684971225145341
407,0.00517368316650391,0.0000594470802527461
408,0.00527715682983398,0.0000572939242186634
409,0.00491952896118164,0.0000742657609213457
410,0.00473690032958984,0.0000569665760140412
411,0.00492668151855469,0.000045624620531932
412,0.00486564636230469,0.0000549946446838976
413,0.00472211837768555,0.0000590912644456159
414,0.00447177886962891,0.0000619154275441339
415,0.0043644905090332,0.0000815628530405729
416,0.00433635711669922,0.0000641164257582535
417,0.00424861907958984,0.0000670918523574187
418,0.00419092178344727,0.0000639388667749853
419,0.0040287971496582,0.0000575769761967605
420,0.00411558151245117,0.0000608523432438594
421,0.00429677963256836,0.0000583575437350539
422,0.00373601913452148,0.0000429960657292176
423,0.00371503829956055,0.0000666566500196057
424,0.00355958938598633,0.0000835322892778709
425,0.003631591796875,0.0000635142798881781
426,0.00357961654663086,0.0000498220675485649
427,0.00382423400878906,0.0000508195227498444
428,0.00325918197631836,0.0000660225774407679
429,0.00361156463623047,0.0000644100930145052
430,0.00327491760253906,0.0000601089127303986
431,0.00303840637207031,0.0000572413168085317
432,0.00313329696655273,0.0000591268462441336
433,0.00328731536865234,0.0000523370869275757
434,0.00273752212524414,0.0000647410714548388
435,0.0027313232421875,0.0000559232618762885
436,0.00291061401367187,0.0000589062786206968
437,0.00285911560058594,0.0000585898802269146
438,0.00286054611206055,0.0000537812283730425
439,0.002655029296875,0.0000331350363708342
440,0.00275516510009766,0.0000533653003826127
441,0.002899169921875,0.0000419277899690569
442,0.0023040771484375,0.0000562031029934745
443,0.00253438949584961,0.0000470645763411078
444,0.00233983993530273,0.0000511295299548956
445,0.00236988067626953,0.0000508362980073075
446,0.00233602523803711,0.0000554444955968805
447,0.00216531753540039,0.0000627072590942648
448,0.00223493576049805,0.0000548590737086092
449,0.00218582153320312,0.0000603768867327856
450,0.00203180313110352,0.0000605864722223991
451,0.00205707550048828,0.0000510215759277344
452,0.00190591812133789,0.0000528332558771352
453,0.00178432464599609,0.000062296178795052
454,0.00186252593994141,0.0000505211163147451
455,0.00170326232910156,0.0000524705074218306
456,0.00168085098266602,0.00007224358342527
457,0.00165796279907227,0.0000510304879934666
458,0.00156068801879883,0.0000509011103186918
459,0.00139427185058594,0.0000410267044239162
460,0.00130462646484375,0.0000445223955163477
461,0.00128364562988281,0.0000519544664877268
462,0.00118255615234375,0.0000607307861744327
463,0.00137615203857422,0.0000624347202428166
464,0.00119686126708984,0.0000567406164703772
465,0.00116539001464844,0.0000485227205463035
466,0.000934600830078125,0.000052073586906761
467,0.000997066497802734,0.0000825355397164109
468,0.00108098983764648,0.0000609578074649263
469,0.000971794128417969,0.000044808740676362
470,0.00100898742675781,0.0000526338376104226
471,0.000928878784179688,0.0000565680424033776
472,0.000880241394042969,0.0000722136776953683
473,0.000861167907714844,0.0000545858803157541
474,0.000824928283691406,0.0000677041601154284
475,0.000818252563476563,0.0000562445548159259
476,0.000626564025878906,0.0000660449588515502
477,0.000646114349365234,0.0000440977704564329
478,0.000522613525390625,0.0000545379568310974
479,0.000451564788818359,0.0000396936504240146
480,0.000514030456542969,0.0000508910586462508
481,0.000474452972412109,0.0000470971749767059
482,0.000365257263183594,0.0000516428071091357
483,0.000422477722167969,0.0000680658946230144
484,0.000224113464355469,0.0000590826061734096
485,0.00302839279174805,0.0000568856937103529
486,-0.00178337097167969,0.0000561838832422465
487,0.000126838684082031,0.0000504129869901271
488,-0.000151634216308594,0.0000697030895790924
489,0.000220775604248047,0.0000853951317044206
490,0.00000667572021484375,0.00005866163048361
491,0.0000734329223632813,0.0000525300573498551
492,0.000125885009765625,0.0000539764077194088
493,-0.0000195503234863281,0.0000494590708288784
494,-0.000138282775878906,0.0000383498341089722
495,0.0000562667846679688,0.0000556920488644576
496,-0.000179290771484375,0.0000852538967392011
497,-0.000176429748535156,0.000058264935091401
498,-0.0000457763671875,0.0000613584005494687
499,-0.000174999237060547,0.0000611579672736199
500,-0.000325202941894531,0.0000441943420819607
501,-0.000291824340820312,0.000052209858341612
502,-0.000385284423828125,0.0000559517153476115
503,-0.000353336334228516,0.0000470742375495317
504,-0.000421047210693359,0.0000534632067313295
505,-0.000323772430419922,0.0000625475136170596
506,-0.000504970550537109,0.0000656391939010056
507,-0.000560283660888672,0.0000665422794588636
508,-0.000522136688232422,0.0000644012671751108
509,-0.000668525695800781,0.0000788051850919786
510,-0.000705718994140625,0.0000473715578146527
511,-0.000617027282714844,0.0000549067169178946
512,-0.000707149505615234,0.0000850335830879201
513,-0.000788211822509766,0.0000459634910051531
514,-0.000700473785400391,0.0000385427802384358
515,-0.000808238983154297,0.0000558337422815669
516,-0.000811100006103516,0.0000677528385643245
517,-0.000882148742675781,0.0000765215934471412
518,-0.000869274139404297,0.0000712341092094694
519,-0.000986099243164063,0.0000681793767994504
520,-0.000954151153564453,0.0000658311647622006
521,-0.00107765197753906,0.000060063503239655
522,-0.00108718872070312,0.0000807306573298199
523,-0.00102567672729492,0.0000672289663795344
524,-0.00115299224853516,0.0000550287434851366
525,-0.00109195709228516,0.0000460499791967521
526,-0.00118064880371094,0.0000580978675336262
527,-0.00114679336547852,0.0000488868561331552
528,-0.00106954574584961,0.0000501416435332303
529,-0.00118541717529297,0.0000621884140786203
530,-0.00116682052612305,0.0000540111493669285
531,-0.00123357772827148,0.0000470512889404002
532,-0.00128793716430664,0.0000379175499372839
533,-0.00120306015014648,0.0000544336297847064
534,-0.00122261047363281,0.0000568096994292457
535,-0.00135421752929687,0.000049548635305105
536,-0.0014338493347168,0.0000532874858270946
537,-0.0013585090637207,0.0000476431674214654
538,-0.00137948989868164,0.0000388980478075313
539,-0.00137090682983398,0.0000668627041523511
540,-0.00136470794677734,0.000073256218082912
541,-0.00138044357299805,0.000058199533014259
542,-0.001434326171875,0.0000537093085074485
543,-0.00153589248657227,0.0000537727722050071
544,-0.00150966644287109,0.000052783741171346
545,-0.00148200988769531,0.0000627815471600408
546,-0.00151634216308594,0.0000708949581823182
547,-0.00138998031616211,0.0000496506333207898
548,-0.00151634216308594,0.000038571528383562
549,-0.00160503387451172,0.0000444687402039881
550,-0.00161027908325195,0.0000450882249832253
551,-0.00152254104614258,0.0000368670989959989
552,-0.00147914886474609,0.0000370968889614771
553,-0.00145196914672852,0.0000464286132685391
554,-0.00161933898925781,0.0000433594192235362
555,-0.00153636932373047,0.0000412140151210564
556,-0.0016932487487793,0.000043304322973787
557,-0.00166511535644531,0.0000385199138436689
558,-0.00166845321655273,0.00004687578478792
559,-0.00169038772583008,0.0000437366520381237
560,-0.00176334381103516,0.0000472165107533465
561,-0.00183868408203125,0.0000396133742702066
562,-0.00189447402954102,0.0000434301545546333
563,-0.0017242431640625,0.0000568167031523767
564,-0.00183391571044922,0.0000374817968772159
565,-0.00188589096069336,0.0000456806513348952
566,-0.00193405151367187,0.0000482478153825415
567,-0.00194740295410156,0.0000413661387848431
568,-0.00199699401855469,0.0000415943060580117
569,-0.00188446044921875,0.00003434303565416
570,-0.00190067291259766,0.0000339208561887886
571,-0.00194931030273437,0.0000394688978042261
572,-0.00212001800537109,0.0000498391785383707
573,-0.00168848037719727,0.00003813281392552
574,-0.00194692611694336,0.0000342278083248293
575,-0.00193262100219727,0.0000372589583243903
576,-0.00167131423950195,0.0000313590680073879
577,-0.00191974639892578,0.0000262569115787312
578,-0.0020751953125,0.000029593691124773
579,-0.00191450119018555,0.0000350896750618179
580,-0.0017399787902832,0.0000278761180499846
581,-0.00162553787231445,0.0000250362213558302
582,-0.00227975845336914,0.0000341280185838258
583,-0.00220680236816406,0.0000295441892479238
584,-0.00165843963623047,0.0000244573771421279
585,-0.00189304351806641,0.0000390897421633525
586,-0.00226974487304687,0.0000399719253644304
587,-0.00182056427001953,0.0000329354362673519
588,-0.00221872329711914,0.000046331791135888
589,-0.00211620330810547,0.0000357118880145126
590,-0.0020594596862793,0.0000320245056649857
591,-0.00224161148071289,0.0000353945208792738
592,-0.00174093246459961,0.0000433463074208767
593,-0.00214815139770508,0.0000370508915613176
594,-0.00196075439453125,0.0000307984761072736
595,-0.00208520889282227,0.0000247318339120196
596,-0.00224065780639648,0.0000368624731653699
597,-0.00203084945678711,0.0000320387024985169
598,-0.0020747184753418,0.0000266442762737634
599,-0.0019383430480957,0.0000242689737015446
600,-0.00191068649291992,0.0000344669495425984
601,-0.00208282470703125,0.0000353647974937719
602,-0.0020904541015625,0.0000274321271612102
603,-0.00217008590698242,0.0000313082723067846
604,-0.00232410430908203,0.0000346503491061488
605,-0.00196647644042969,0.000040818346980606
606,-0.00221872329711914,0.0000261810306583422
607,-0.00206804275512695,0.0000334585458596866
608,-0.00228214263916016,0.000037216216142462
609,-0.00224113464355469,0.0000262374203021908
610,-0.00208711624145508,0.0000305817718668633
611,-0.00228166580200195,0.0000314332993279192
612,-0.00218439102172852,0.0000294376955710364
613,-0.00216484069824219,0.0000318375854160759
614,-0.00243949890136719,0.0000370554938707026
615,-0.0023188591003418,0.0000387142147680012
616,-0.00253629684448242,0.0000535524431596308
617,-0.00235176086425781,0.0000400997086365292
618,-0.00219297409057617,0.0000398836587263612
619,-0.00211381912231445,0.0000364437440678476
620,-0.00205421447753906,0.0000335696407325953
621,-0.00224065780639648,0.0000327050854257228
622,-0.00212478637695312,0.0000318474037047511
623,-0.00244045257568359,0.0000418830264671088
624,-0.00237083435058594,0.000042805265605522
