Wavelength (nm),Absorbance (AU),Std.Dev.
190,0.194462299346924,0.0000599061967275361
191,0.189116477966309,0.000050914509461727
192,0.18317699432373,0.000061659672615789
193,0.176285743713379,0.0000421765094552658
194,0.169290065765381,0.0000346002781004355
195,0.162106513977051,0.0000420712535644927
196,0.155356884002686,0.000042705552926173
197,0.149105548858643,0.0000410682490620069
198,0.14304256439209,0.0000305380603482018
199,0.137304306030273,0.0000278587799340898
200,0.131833076477051,0.0000296028134958089
201,0.126790523529053,0.0000315497243676012
202,0.122323036193848,0.000026013859796999
203,0.118419647216797,0.0000356306176881244
204,0.114917278289795,0.000034070507136768
205,0.111778259277344,0.0000287934239729297
206,0.108824729919434,0.0000424813472243164
207,0.105992317199707,0.0000470428313676906
208,0.103302478790283,0.0000381879288633729
209,0.100908756256104,0.000040442004041368
210,0.0985469818115234,0.0000533162797876154
211,0.0961880683898926,0.0000351770434400182
212,0.0939788818359375,0.0000400564499698117
213,0.0917873382568359,0.0000475547955095844
214,0.0897836685180664,0.0000431754916372858
215,0.0878243446350098,0.0000316585401014287
216,0.0859580039978027,0.0000385641591073281
217,0.0841565132141113,0.0000312482999408121
218,0.0825228691101074,0.0000309659754046755
219,0.0808382034301758,0.000029652217504581
220,0.0791463851928711,0.0000308390538272525
221,0.0775585174560547,0.0000298694807576197
222,0.0759615898132324,0.0000339995259665983
223,0.0744829177856445,0.0000236851789255921
224,0.0729537010192871,0.0000281576278523343
225,0.0714812278747559,0.0000355667463134938
226,0.070155143737793,0.0000385523653353922
227,0.0687832832336426,0.000036215303441714
228,0.0675163269042969,0.0000392160515258632
229,0.0663895606994629,0.0000334219991028924
230,0.0651402473449707,0.0000323222090093296
231,0.0640525817871094,0.0000398137611681249
232,0.0630197525024414,0.0000360343477398639
233,0.0619187355041504,0.0000304789037324631
234,0.0609369277954102,0.000026750734570077
235,0.0600008964538574,0.0000265513103388842
236,0.0590343475341797,0.0000225630152975483
237,0.0583257675170898,0.0000278725493195485
238,0.0576329231262207,0.0000252982223279391
239,0.0568771362304688,0.0000285575301872556
240,0.0563192367553711,0.0000260007457683734
241,0.0558052062988281,0.0000331547588428917
242,0.0551700592041016,0.000043680730276426
243,0.0546555519104004,0.0000279346819226776
244,0.0542831420898438,0.0000292084654162528
245,0.053861141204834,0.0000255119020450505
246,0.0534582138061523,0.0000282744733436081
247,0.053131103515625,0.0000270565698084387
248,0.0527939796447754,0.0000273397610872918
249,0.0523824691772461,0.0000291982464554705
250,0.0521144866943359,0.0000262893649261281
251,0.0517702102661133,0.0000302599109833345
252,0.0514430999755859,0.0000205693893306464
253,0.0511775016784668,0.0000211316749860439
254,0.0508718490600586,0.0000320511195694085
255,0.0505490303039551,0.0000255013163087138
256,0.0502867698669434,0.0000328213289010542
257,0.0499229431152344,0.0000252858611747033
258,0.0496335029602051,0.000028983306297333
259,0.0493350028991699,0.0000270875405058361
260,0.0489935874938965,0.0000407946659992195
261,0.0486717224121094,0.0000289322689422081
262,0.0482420921325684,0.0000317947064937013
263,0.0478439331054688,0.0000362678468128327
264,0.0474786758422852,0.0000344133083057423
265,0.0470113754272461,0.0000324012515644113
266,0.0466160774230957,0.0000331221675621266
267,0.0462002754211426,0.0000513115335455383
268,0.0458025932312012,0.0000526791771840131
269,0.0453953742980957,0.0000450730938596995
270,0.0448155403137207,0.0000474363107653193
271,0.0444726943969727,0.0000487482919587439
272,0.0439925193786621,0.0000545931693319768
273,0.0434317588806152,0.0000561575718705646
274,0.0430855751037598,0.0000488961572854717
275,0.0426263809204102,0.0000390686509013354
276,0.042083740234375,0.0000303728800855641
277,0.0416297912597656,0.0000369310302069442
278,0.0411491394042969,0.0000387802312112808
279,0.0406498908996582,0.0000277801129616811
280,0.0400152206420898,0.0000235081202601309
281,0.0395421981811523,0.0000184077054471565
282,0.039095401763916,0.0000255525327657489
283,0.0385494232177734,0.0000359221721442232
284,0.0379738807678223,0.0000346921562826511
285,0.0375146865844727,0.000027866430432646
286,0.0370030403137207,0.0000224974176637372
287,0.0364222526550293,0.0000294178964313625
288,0.0359029769897461,0.0000390664683967445
289,0.0353069305419922,0.0000439867740483908
290,0.0349149703979492,0.0000330155932867313
291,0.0343461036682129,0.0000293506731240622
292,0.0339288711547852,0.0000353784572854178
293,0.0334882736206055,0.0000577386597467301
294,0.0329732894897461,0.000038631167711728
295,0.0325818061828613,0.0000364546607383313
296,0.0321598052978516,0.0000294589286252565
297,0.0317039489746094,0.0000342444116769214
298,0.0313372611999512,0.0000475177259976634
299,0.0309782028198242,0.0000442624589743567
300,0.0305404663085937,0.0000369925460823541
301,0.0301995277404785,0.0000429153442382813
302,0.029853343963623,0.000049591064453125
303,0.029456615447998,0.0000431267511543084
304,0.0292067527770996,0.0000392037288935444
305,0.0289063453674316,0.0000353559559928455
306,0.028435230255127,0.0000334305019140058
307,0.0281276702880859,0.0000393852771640951
308,0.0278544425964355,0.0000329173092813602
309,0.0275802612304687,0.0000321767933630863
310,0.0272531509399414,0.0000415293410934459
311,0.0268878936767578,0.0000416775862250751
312,0.0266194343566895,0.0000375280234717388
313,0.0262537002563477,0.0000362521701979603
314,0.0259675979614258,0.0000408350546991406
315,0.0257358551025391,0.0000383787267834833
316,0.0253214836120605,0.000030835367150153
317,0.0250778198242187,0.0000371665430425873
318,0.0248255729675293,0.0000455585403221344
319,0.0245223045349121,0.0000621152469092429
320,0.0242156982421875,0.0000450466021636829
321,0.023857593536377,0.0000524000429833075
322,0.0236101150512695,0.0000485438026146866
323,0.0232295989990234,0.0000502265958337081
324,0.0229873657226562,0.0000503971987469405
325,0.0226430892944336,0.0000396348927542045
326,0.0224223136901855,0.0000456657165095173
327,0.0220379829406738,0.0000428357976560129
328,0.0216941833496094,0.0000433436845843741
329,0.0213408470153809,0.0000507131505917193
330,0.0211868286132812,0.0000600445724829948
331,0.0208139419555664,0.0000406613782474901
332,0.0205273628234863,0.0000375961228505394
333,0.0202679634094238,0.0000402221399753601
334,0.0199346542358398,0.0000398637005014932
335,0.0195655822753906,0.0000361335922351196
336,0.0192856788635254,0.0000559689836121884
337,0.0190238952636719,0.0000464848978118136
338,0.0186820030212402,0.0000569745581594566
339,0.0184831619262695,0.0000543667554110441
340,0.018190860748291,0.0000476729857769872
341,0.0178852081298828,0.0000436442775862504
342,0.0176429748535156,0.0000384046375999226
343,0.0173497200012207,0.0000387736346249697
344,0.0171265602111816,0.0000389936483431309
345,0.0168576240539551,0.0000407472627486233
346,0.0166492462158203,0.0000422169226135891
347,0.0163812637329102,0.000062652846167209
348,0.0161190032958984,0.0000543050326443021
349,0.0158758163452148,0.0000367999675399298
350,0.0156540870666504,0.0000367389028258859
351,0.0153684616088867,0.0000482478153825415
352,0.0151457786560059,0.0000669714351182144
353,0.0148725509643555,0.000046674052581939
354,0.0147228240966797,0.0000399882759815098
355,0.0145430564880371,0.0000440835888286481
356,0.0143532752990723,0.0000493463106742469
357,0.0141458511352539,0.0000448379084957032
358,0.0139555931091309,0.0000522903636824472
359,0.013671875,0.0000515899462870505
360,0.0134572982788086,0.0000419481212243787
361,0.0132546424865723,0.000050176774589275
362,0.0130167007446289,0.0000512583310944111
363,0.0128097534179687,0.0000734019523807291
364,0.0127415657043457,0.0000645546646147554
365,0.0123763084411621,0.0000405598987332395
366,0.0123386383056641,0.0000545608820102875
367,0.0121102333068848,0.0000508743014455266
368,0.0119504928588867,0.0000515921499026373
369,0.011777400970459,0.0000457527675990001
370,0.01165771484375,0.0000494728605329091
371,0.0115442276000977,0.0000833197039038951
372,0.0112581253051758,0.0000605179434316952
373,0.0111923217773437,0.0000493036708994735
374,0.01104736328125,0.000033345376236238
375,0.0107030868530273,0.0000348254387598232
376,0.0106849670410156,0.0000499826795893589
377,0.0106034278869629,0.0000556123793177278
378,0.0103812217712402,0.0000740342476171302
379,0.0102534294128418,0.0000694645531206836
380,0.0100932121276855,0.000088678892296192
381,0.009918212890625,0.0000749226354271025
382,0.00993680953979492,0.0000672205106502722
383,0.00969600677490234,0.000077520876168711
384,0.00944948196411133,0.0000741063855749313
385,0.00933837890625,0.0000887916371192616
386,0.00924444198608398,0.0000822803207718725
387,0.00909233093261719,0.0000889272535948098
388,0.00893354415893555,0.0000881413849593048
389,0.00879907608032227,0.0000789478764201411
390,0.00882244110107422,0.0000625511487266792
391,0.0085148811340332,0.00004992692263583
392,0.00850391387939453,0.0000604643806505262
393,0.00842475891113281,0.0000782216441030063
394,0.00821065902709961,0.0000697829635868791
395,0.00805854797363281,0.0000667486866560694
396,0.00786399841308594,0.0000648428408253081
397,0.00781869888305664,0.0000840789803887127
398,0.00769186019897461,0.0000634300968544743
399,0.00748586654663086,0.0000442431912489457
400,0.00753593444824219,0.0000558917429224977
401,0.00734615325927734,0.0000857816662135291
402,0.00749349594116211,0.0000737480733077286
403,0.00719785690307617,0.0000606146122769682
404,0.00703525543212891,0.0000825382945282377
405,0.00703144073486328,0.0000541761302554821
406,0.00667524337768555,0.0000785450821872459
407,0.00687313079833984,0.0000663112321510969
408,0.00670814514160156,0.0000666157040315987
409,0.00654935836791992,0.0000741554606255977
410,0.00644922256469727,0.0000526975178260411
411,0.0064697265625,0.000036157967777498
412,0.00639915466308594,0.0000413537695552341
413,0.00626087188720703,0.00006077289113628
414,0.00606679916381836,0.000059649450627591
415,0.00593709945678711,0.0000799538046942512
416,0.00582551956176758,0.0000659312515209875
417,0.00584650039672852,0.0000736231013262224
418,0.00571298599243164,0.000049091074402816
419,0.00564002990722656,0.0000410024506124604
420,0.00560283660888672,0.0000498391785383707
421,0.00562047958374023,0.0000544242305411752
422,0.00538110733032227,0.0000469363775910485
423,0.00527238845825195,0.0000574623399696411
424,0.00514602661132813,0.0000741523943864504
425,0.00523519515991211,0.0000476920597405519
426,0.00509786605834961,0.0000385811063383247
427,0.00527620315551758,0.0000453183486398279
428,0.00481843948364258,0.0000540942281220157
429,0.00497293472290039,0.0000385346679095706
430,0.00478982925415039,0.0000375938548586903
431,0.00465822219848633,0.0000500326941088751
432,0.00475168228149414,0.0000667554991368644
433,0.00465154647827148,0.0000583205179242718
434,0.00427818298339844,0.0000457241833792635
435,0.00427818298339844,0.00004968839959991
436,0.00437641143798828,0.0000430165527928016
437,0.00430440902709961,0.000052781587304364
438,0.00434970855712891,0.0000668933025999076
439,0.00413370132446289,0.0000545921281035294
440,0.00421810150146484,0.0000322165172695544
441,0.00416755676269531,0.0000369056250363521
442,0.00396060943603516,0.0000523001464202738
443,0.00406074523925781,0.0000463035643616337
444,0.00393486022949219,0.0000449885182236305
445,0.00384664535522461,0.0000381141760032512
446,0.0037379264831543,0.000031276483101136
447,0.00360298156738281,0.0000497512796908283
448,0.00359869003295898,0.0000612285649081212
449,0.00369167327880859,0.0000513115335455383
450,0.00356960296630859,0.0000536129118600698
451,0.00356960296630859,0.0000419569283754228
452,0.00341033935546875,0.0000507523662725065
453,0.00337743759155273,0.0000511784237180896
454,0.00339984893798828,0.0000460351641896566
455,0.00318813323974609,0.000051344757083139
456,0.00319814682006836,0.0000858147924326302
457,0.003173828125,0.0000552298066528272
458,0.00315189361572266,0.0000459053289282178
459,0.00301980972290039,0.0000487552878149772
460,0.00284481048583984,0.0000629099848574525
461,0.00288009643554687,0.0000707601279460079
462,0.00269460678100586,0.000061209994477647
463,0.00278997421264648,0.0000496655143741198
464,0.00269699096679687,0.0000443842936638645
465,0.00261163711547852,0.0000419372791148091
466,0.00252342224121094,0.0000577445664142956
467,0.00251960754394531,0.0000751952695381983
468,0.00251674652099609,0.0000607560526530744
469,0.00254583358764648,0.0000473283399627433
470,0.00254058837890625,0.0000514188788097709
471,0.00236845016479492,0.0000491813090448506
472,0.00233840942382812,0.0000392377879071309
473,0.00232553482055664,0.000039025705906974
474,0.00250244140625,0.0000474914010486018
475,0.00229358673095703,0.000050942413023642
476,0.0021510124206543,0.0000722152519899084
477,0.00220727920532227,0.0000559161462461415
478,0.00205278396606445,0.0000485683867951758
479,0.00200510025024414,0.0000517450712823888
480,0.00194406509399414,0.0000712245328016545
481,0.00200033187866211,0.0000552328942155111
482,0.00189590454101562,0.0000543353797151786
483,0.00191020965576172,0.0000527471134713655
484,0.00166940689086914,0.0000578802534028712
485,0.00304651260375977,0.0000503960708260168
486,0.000716686248779297,0.0000558479936335455
487,0.00171995162963867,0.0000475966134854009
488,0.00158977508544922,0.0000553028327338385
489,0.00159263610839844,0.0000717715167539772
490,0.00160074234008789,0.0000579852414465681
491,0.00159931182861328,0.0000687042757199397
492,0.00162267684936523,0.0000621975539228928
493,0.00153493881225586,0.0000549450086513553
494,0.00146055221557617,0.0000500883333206509
495,0.00150537490844727,0.0000455373244717153
496,0.00134611129760742,0.0000676352790800954
497,0.00145053863525391,0.0000626510315890849
498,0.0013885498046875,0.0000578694494423927
499,0.00125837326049805,0.0000653406114434015
500,0.00123262405395508,0.0000398323173722403
501,0.00110864639282227,0.0000449202368952008
502,0.00110960006713867,0.0000628448943228401
503,0.00116205215454102,0.0000466484700802658
504,0.00113534927368164,0.0000514564519816168
505,0.00121307373046875,0.0000434484745459197
506,0.00100898742675781,0.0000590489230462501
507,0.00102996826171875,0.0000688827544393324
508,0.00099945068359375,0.0000768773305064369
509,0.000947475433349609,0.0000817132507801884
510,0.000957489013671875,0.000064988199093051
511,0.000885486602783203,0.0000609148971631392
512,0.000817775726318359,0.000075591850338273
513,0.000784397125244141,0.0000632254425683796
514,0.000939846038818359,0.0000412539932696532
515,0.000765323638916016,0.000054160389464009
516,0.000700473785400391,0.0000692251947172528
517,0.000734329223632813,0.0000692399736187164
518,0.000645160675048828,0.0000631858715782865
519,0.000612735748291016,0.0000839003076159261
520,0.000590324401855469,0.0000772211241317698
521,0.000481605529785156,0.0000439389335121881
522,0.00049591064453125,0.0000504591955704142
523,0.00045013427734375,0.0000715271631700025
524,0.000481128692626953,0.0000480187092982497
525,0.000469684600830078,0.0000437353523441413
526,0.000359058380126953,0.0000505514860148194
527,0.000451564788818359,0.0000511795343971204
528,0.000474452972412109,0.0000620035007430562
529,0.000326156616210937,0.0000663129465720843
530,0.000381946563720703,0.0000695152697196451
531,0.000340461730957031,0.0000602694628484721
532,0.000238418579101562,0.0000435060014391944
533,0.000281333923339844,0.00006197599131327
534,0.000250816345214844,0.0000506772696988631
535,0.000147342681884766,0.0000390351724215844
536,0.000205039978027344,0.0000537018995239855
537,0.000121116638183594,0.0000508642444751794
538,0.000125408172607422,0.0000575236394773954
539,0.000139713287353516,0.000061165402440783
540,0.000141143798828125,0.0000687687798026385
541,0.000154018402099609,0.0000515017243486373
542,0.0000677108764648438,0.0000536923721858584
543,-0.0000019073486328125,0.0000512694194911692
544,-0.0000538825988769531,0.0000454673669474038
545,-0.0000414848327636719,0.0000500429181936042
546,0.0000276565551757812,0.0000680291392711355
547,0.0000977516174316406,0.0000562354582527981
548,-0.0000405311584472656,0.0000446829748793321
549,-0.000114917755126953,0.0000440319807697137
550,-0.0000896453857421875,0.0000566363322110056
551,-0.000110626220703125,0.000042831816448917
552,-0.000104427337646484,0.0000387860939016974
553,-0.0000939369201660156,0.0000339300716502035
554,-0.000107288360595703,0.0000421481971884679
555,-0.0000910758972167969,0.0000429954046936686
556,-0.000216007232666016,0.0000298604398536029
557,-0.000147819519042969,0.0000264413621108767
558,-0.000200748443603516,0.0000351212498251348
559,-0.000203609466552734,0.0000475428407605306
560,-0.000220775604248047,0.0000545671326603006
561,-0.000334262847900391,0.0000385331927571953
562,-0.000340938568115234,0.0000399121531636077
563,-0.000256061553955078,0.0000416229950873277
564,-0.000305652618408203,0.0000362443293478204
565,-0.000341892242431641,0.0000413984187941202
566,-0.000371932983398437,0.0000529933228378761
567,-0.00041961669921875,0.0000445874615922223
568,-0.000416278839111328,0.0000448885899954312
569,-0.000393390655517578,0.0000448835244207386
570,-0.000451564788818359,0.00003457809237535
571,-0.000478744506835938,0.0000367706072974486
572,-0.000574111938476563,0.0000337612830768755
573,-0.000382900238037109,0.0000321069369613601
574,-0.000516891479492188,0.0000404567596660695
575,-0.000395298004150391,0.0000326137095977051
576,-0.000315666198730469,0.0000372238522744632
577,-0.000441551208496094,0.00002873018073869
578,-0.000502109527587891,0.0000261527902420119
579,-0.00043487548828125,0.0000333069987012869
580,-0.000409603118896484,0.0000330061224997331
581,-0.0003204345703125,0.000031914266075659
582,-0.000615596771240234,0.0000295773598596602
583,-0.000640392303466797,0.0000355195675876781
584,-0.000339508056640625,0.0000303340212106692
585,-0.000474929809570313,0.0000341962397465649
586,-0.00066375732421875,0.0000326154524813187
587,-0.000474929809570313,0.0000264601661013035
588,-0.000689506530761719,0.0000342643250794632
589,-0.000642299652099609,0.0000343918283848895
590,-0.000617504119873047,0.0000315326034877118
591,-0.000714302062988281,0.0000262926080576978
592,-0.000467777252197266,0.0000316926365465305
593,-0.000664234161376953,0.0000304653794192568
594,-0.000630378723144531,0.0000313717540815943
595,-0.000678539276123047,0.0000237965152636131
596,-0.000767707824707031,0.0000449278288341123
597,-0.000640869140625,0.0000355915100735148
598,-0.000673294067382813,0.0000365473207826684
599,-0.000586509704589844,0.000037256669807728
600,-0.000524520874023438,0.0000281217720796715
601,-0.000642776489257813,0.00003031902617347
602,-0.000699043273925781,0.0000261734304668117
603,-0.000737667083740234,0.000026644809623303
604,-0.000784873962402344,0.0000248693550160639
605,-0.000626564025878906,0.0000339309092953137
606,-0.000763893127441406,0.0000250968823300262
607,-0.000641345977783203,0.0000300090296961156
608,-0.000764369964599609,0.0000253845818599819
609,-0.000829696655273438,0.0000174949532396066
610,-0.000700950622558594,0.0000159606948979269
611,-0.000787258148193359,0.0000213424582976369
612,-0.00072479248046875,0.0000302538052234216
613,-0.000729084014892578,0.0000324669733630165
614,-0.000919818878173828,0.0000283327153861456
615,-0.000895977020263672,0.0000290919518667719
616,-0.000988483428955078,0.0000318804066666542
617,-0.000879287719726563,0.0000393166622756919
618,-0.000769615173339844,0.0000463673569243868
619,-0.000710964202880859,0.0000331255997332733
620,-0.000664234161376953,0.0000338352841846596
621,-0.000789165496826172,0.0000375325672744158
622,-0.000802516937255859,0.0000324582181452743
623,-0.000918865203857422,0.0000314929193991821
624,-0.000913619995117188,0.0000341812760333058
625,-0.000893592834472656,0.0000316540509928739
626,-0.000873565673828125,0.0000321264059031771
627,-0.000782012939453125,0.0000332215565649993
628,-0.000885963439941406,0.0000433607301857347
629,-0.000860214233398438,0.0000440435978553516
630,-0.000938892364501953,0.0000323292428397833
631,-0.000942230224609375,0.0000281076191990168
632,-0.000924110412597656,0.0000271755349135876
633,-0.000925540924072266,0.0000405746114836202
634,-0.000979423522949219,0.0000452153779454272
635,-0.000971317291259766,0.0000460351641896566
636,-0.000903606414794922,0.0000428258439443284
637,-0.00109958648681641,0.0000406054209124422
638,-0.00110960006713867,0.0000284822901514612
639,-0.00112724304199219,0.0000386605852972519
640,-0.000951290130615234,0.0000375696544265811
641,-0.000797748565673828,0.000046530120756027
642,-0.000756263732910156,0.0000433594192235362
643,-0.000749588012695313,0.0000514697065523896
644,-0.000828266143798828,0.0000435373477066817
645,-0.00102996826171875,0.0000455884753023049
646,-0.000979423522949219,0.0000382221494442898
647,-0.0010986328125,0.0000400316083179767
648,-0.000920772552490234,0.0000545931693319768
649,-0.00101518630981445,0.0000504332788974276
650,-0.00103044509887695,0.0000321538194036164
651,-0.00102519989013672,0.0000280980113986339
652,-0.00108098983764648,0.0000430970847190028
653,-0.00101327896118164,0.0000444431672878448
654,-0.0010981559753418,0.0000489066189674269
655,0.000187397003173828,0.00002167905411085
656,-0.0018157958984375,0.0000330508695838422
657,-0.00259494781494141,0.000032745904375819
658,-0.00112533569335937,0.0000302317202645417
659,-0.00119209289550781,0.0000282759811144847
660,-0.00109577178955078,0.0000368956121358439
661,-0.00110483169555664,0.0000287756508622375
662,-0.0011296272277832,0.0000281141910653594
663,-0.00113582611083984,0.0000397901966007971
664,-0.00107097625732422,0.000035307690650004
665,-0.00116443634033203,0.0000326250366768933
666,-0.00121164321899414,0.0000301865603547039
667,-0.00116491317749023,0.0000336829006625449
668,-0.00114774703979492,0.000030761540822525
669,-0.00118398666381836,0.0000410377871063872
670,-0.00114822387695312,0.000039845872210321
671,-0.00110769271850586,0.000035944318984887
672,-0.00115251541137695,0.0000462630349949843
673,-0.0012049674987793,0.0000340680044367142
674,-0.00118207931518555,0.0000310951210774672
675,-0.00122308731079102,0.0000293467994704721
676,-0.00115203857421875,0.0000358667452139018
677,-0.00116252899169922,0.000045089485680984
678,-0.0011897087097168,0.0000449088465803951
679,-0.00118494033813477,0.0000393022017719567
680,-0.0012049674987793,0.0000329017639160156
681,-0.00111532211303711,0.0000322702871621869
682,-0.00108194351196289,0.0000427567678149605
683,-0.00117301940917969,0.0000321776766493421
684,-0.00117301940917969,0.0000410454047147379
685,-0.00119876861572266,0.0000351074899581115
686,-0.00123405456542969,0.0000261136377083639
687,-0.00124597549438477,0.0000299758626838699
688,-0.00123786926269531,0.0000336972422486396
689,-0.00121831893920898,0.00004611658783191
690,-0.00121831893920898,0.0000434890127772154
691,-0.00121498107910156,0.0000336938683069792
692,-0.00124073028564453,0.0000414526200467879
693,-0.00118637084960937,0.0000405928198815641
694,-0.00120973587036133,0.0000370478230374346
695,-0.00122642517089844,0.0000266090515676569
696,-0.00128793716430664,0.0000314531852417764
697,-0.00124454498291016,0.0000329863111583212
698,-0.00128269195556641,0.0000322341566254914
699,-0.00121879577636719,0.0000475894472992943
700,-0.00126075744628906,0.0000418782760164803
701,-0.00127553939819336,0.0000327519794412843
702,-0.00127077102661133,0.000022659174319914
703,-0.00125026702880859,0.0000258928504370183
704,-0.00126361846923828,0.0000389060843679296
705,-0.00130844116210937,0.0000343695081045169
706,-0.00117921829223633,0.0000396399120529967
707,-0.00124692916870117,0.0000405002925254556
708,-0.00129508972167969,0.0000391093686308872
709,-0.00129556655883789,0.000043713251634086
710,-0.00125980377197266,0.0000402856854465073
711,-0.00133943557739258,0.0000334254004868929
712,-0.00137948989868164,0.0000394516115238375
713,-0.00130796432495117,0.0000418870978531302
714,-0.00132369995117187,0.0000303696047509025
715,-0.00131940841674805,0.00002760615360145
716,-0.0013585090637207,0.0000372055229246734
717,-0.0012812614440918,0.0000394523319367391
718,-0.00131702423095703,0.0000334415523363904
719,-0.00133752822875977,0.0000321343670705592
720,-0.00139904022216797,0.0000393275041641817
721,-0.00143766403198242,0.0000459882185144763
722,-0.00136327743530273,0.0000481463874152958
723,-0.00133609771728516,0.0000416837232540271
724,-0.00140762329101562,0.0000453371594391049
725,-0.00145959854125977,0.0000595664855878844
726,-0.0014796257019043,0.000042426450495491
727,-0.00138950347900391,0.0000416216293914833
728,-0.00137710571289062,0.0000447223941223677
729,-0.00141477584838867,0.0000467215257787323
730,-0.00149297714233398,0.0000364172185297218
731,-0.00147294998168945,0.0000280271155354508
732,-0.00145196914672852,0.0000292823249043832
733,-0.00149726867675781,0.0000337149499029671
734,-0.0013585090637207,0.0000430786152928434
735,-0.00149631500244141,0.0000473547555590658
736,-0.001556396484375,0.0000365294300223459
737,-0.00161123275756836,0.0000439065793161508
738,-0.00168132781982422,0.0000350304970899233
739,-0.00163078308105469,0.0000313509099632249
740,-0.00157022476196289,0.0000447249361062912
741,-0.00150060653686523,0.0000326972632177997
742,-0.00157833099365234,0.0000397093998846471
743,-0.00159072875976562,0.0000408503641048246
744,-0.00160980224609375,0.0000405528907855166
745,-0.00164937973022461,0.0000393592898082981
746,-0.00160455703735352,0.0000296881395703109
747,-0.00162553787231445,0.0000322094588223492
748,-0.00163173675537109,0.0000492356013544876
749,-0.00165987014770508,0.0000402496886638025
750,-0.00162076950073242,0.000033075798393918
751,-0.00168657302856445,0.000033623782620678
752,-0.00169610977172852,0.0000376044376503668
753,-0.00158309936523437,0.0000413393341096749
754,-0.00163507461547852,0.000053120815120706
755,-0.00164508819580078,0.0000442508993458564
756,-0.00163650512695312,0.000040508011210808
757,-0.00154733657836914,0.0000381357951477844
758,-0.00161600112915039,0.0000280818224098079
759,-0.00163984298706055,0.0000386488209499891
760,-0.00158500671386719,0.0000391369743928083
761,-0.00157403945922852,0.0000326642154661239
762,-0.00166511535644531,0.0000237121630742892
763,-0.00164461135864258,0.0000305068660353465
764,-0.00161981582641602,0.0000394580947664422
765,-0.00160837173461914,0.0000459560701578634
766,-0.00165557861328125,0.0000431254330794244
767,-0.00160121917724609,0.0000277796014092055
768,-0.00162696838378906,0.0000487576195439924
769,-0.00156736373901367,0.0000445887364485205
770,-0.00161314010620117,0.000041975214246143
771,-0.00159168243408203,0.0000362207966133746
772,-0.00175333023071289,0.0000469496975132366
773,-0.00172853469848633,0.0000361296591558735
774,-0.00163030624389648,0.0000278143655454443
775,-0.00164270401000977,0.0000512871559395238
776,-0.00168371200561523,0.0000383631718934342
777,-0.00164222717285156,0.0000276251935724581
778,-0.00162744522094727,0.0000372131612509204
779,-0.00161409378051758,0.000035679242780471
780,-0.00167655944824219,0.0000465276773963091
781,-0.00161981582641602,0.0000367852903479303
782,-0.00162506103515625,0.0000415149666970804
783,-0.00176382064819336,0.0000315082578128974
784,-0.00162124633789062,0.0000364265826899511
785,-0.00164318084716797,0.0000403329265112092
786,-0.00168323516845703,0.0000482383892194385
787,-0.00159835815429687,0.0000407591187297515
788,-0.00171089172363281,0.0000427574325398673
789,-0.00166034698486328,0.0000487960769861833
790,-0.00172901153564453,0.0000529954680994026
791,-0.00162124633789062,0.0000588744256472567
792,-0.00165319442749023,0.0000504073488995218
793,-0.00164222717285156,0.0000485004573101941
794,-0.00157737731933594,0.0000388929327681131
795,-0.00178098678588867,0.0000412029798400175
796,-0.00176715850830078,0.0000423526967921956
797,-0.00171995162963867,0.0000389425932853411
798,-0.00181388854980469,0.0000345526023091395
799,-0.00177907943725586,0.0000345674052811756
800,-0.00179004669189453,0.0000289798739120619
801,-0.0016627311706543,0.0000301658394683994
802,-0.00175571441650391,0.0000413585802507706
803,-0.00162839889526367,0.0000422606599237131
804,-0.0018153190612793,0.000060092834126786
805,-0.0017094612121582,0.0000441994866419085
806,-0.00173282623291016,0.0000349264909309959
807,-0.00182104110717773,0.0000356441756105808
808,-0.00173711776733398,0.0000476634459328221
809,-0.00187063217163086,0.0000394033138551075
810,-0.00184059143066406,0.0000290215254123658
811,-0.00180625915527344,0.0000217484272613167
812,-0.00180482864379883,0.0000278128327497813
813,-0.00171184539794922,0.0000413977322474855
814,-0.0017852783203125,0.0000512372565294782
815,-0.00178003311157227,0.0000538213770275973
816,-0.00181961059570312,0.0000387266931614818
817,-0.00184726715087891,0.0000308804986165851
818,-0.00181436538696289,0.0000399007578305665
819,-0.00186634063720703,0.0000394227842126016
820,-0.00180673599243164,0.0000424237707891567
821,-0.00183200836181641,0.000043615614813915
822,-0.00180339813232422,0.0000321414420083531
823,-0.00182580947875977,0.0000271771036530369
824,-0.00181150436401367,0.0000375121158280802
825,-0.0018916130065918,0.0000297612861397002
826,-0.00194787979125977,0.0000303199635805589
827,-0.00186634063720703,0.0000318759488037132
828,-0.00192880630493164,0.0000387655706061859
829,-0.00185537338256836,0.0000460610873249948
830,-0.00196123123168945,0.0000503543199904954
831,-0.00201797485351562,0.0000521368611437612
832,-0.00199031829833984,0.0000434249188518349
833,-0.00192928314208984,0.0000449581837695053
834,-0.00193929672241211,0.0000387208214772449
835,-0.00199699401855469,0.0000426882457104972
836,-0.00200605392456055,0.0000498391785383707
837,-0.00198078155517578,0.0000393202765706845
838,-0.00197935104370117,0.0000367760175244031
839,-0.00197744369506836,0.0000266948969008783
840,-0.00200939178466797,0.0000336474423017666
841,-0.00199699401855469,0.0000484359534150332
842,-0.00191259384155273,0.0000538203208677638
843,-0.00203895568847656,0.0000343181991861036
844,-0.00197696685791016,0.0000374020926976618
845,-0.00195598602294922,0.0000527578889640054
846,-0.0018916130065918,0.0000672205106502722
847,-0.00196075439453125,0.0000434314633817127
848,-0.0018773078918457,0.0000428914957539509
849,-0.00195455551147461,0.0000314739616268321
850,-0.00194358825683594,0.0000297861055121258
851,-0.00198507308959961,0.0000425067631314082
852,-0.00189828872680664,0.0000468806350941866
853,-0.00197839736938477,0.0000507120296980971
854,-0.00199127197265625,0.0000341388432273729
855,-0.0020751953125,0.0000343662001634019
856,-0.00189733505249023,0.0000479559281035262
857,-0.00196313858032227,0.0000537103668502274
858,-0.00194787979125977,0.0000520692203320263
859,-0.0019378662109375,0.000037236830105041
860,-0.00197172164916992,0.0000539437512444443
861,-0.00197410583496094,0.0000392790538928836
862,-0.00195169448852539,0.0000370393832859782
863,-0.00197505950927734,0.0000365107520561383
864,-0.00207662582397461,0.0000273657381004371
865,-0.00194597244262695,0.0000452493088053984
866,-0.00197315216064453,0.000052632757620731
867,-0.00201225280761719,0.0000528956213988142
868,-0.00187921524047852,0.0000545379568310974
869,-0.00190639495849609,0.000049396969522624
870,-0.00202512741088867,0.0000348033965656365
871,-0.00207757949829102,0.0000521510327684335
872,-0.00212860107421875,0.0000488251912457552
873,-0.00201892852783203,0.0000449480677354526
874,-0.00198125839233398,0.0000483760638590974
875,-0.00198507308959961,0.0000630525869027189
876,-0.00198268890380859,0.0000458607293645652
877,-0.00205612182617187,0.0000636037139912913
878,-0.00197696685791016,0.000052789125454323
879,-0.00204563140869141,0.0000675528657137924
880,-0.0020442008972168,0.0000721837595755244
881,-0.00208568572998047,0.0000506615638171899
882,-0.00197744369506836,0.000035723028335027
883,-0.00206136703491211,0.0000406739580385897
884,-0.0020594596862793,0.0000377989329620085
885,-0.00201988220214844,0.0000455535492462734
886,-0.00212001800537109,0.0000527309461037376
887,-0.00199270248413086,0.0000563364486693504
888,-0.00209951400756836,0.0000436950426558531
889,-0.00189876556396484,0.0000697878508624104
890,-0.00213527679443359,0.0000594116902434255
891,-0.00212860107421875,0.0000560998460661658
892,-0.00212574005126953,0.000055461921786337
893,-0.00209903717041016,0.0000545952517292972
894,-0.00207948684692383,0.0000439428144148921
895,-0.00204944610595703,0.0000509323695024278
896,-0.00204992294311523,0.0000476109426217472
897,-0.00204992294311523,0.0000577366907232587
898,-0.00217342376708984,0.0000650843419994964
899,-0.00214195251464844,0.0000554762686557222
900,-0.00217866897583008,0.0000556746947048645
901,-0.00215387344360352,0.0000601089127303986
902,-0.00217294692993164,0.0000566463678861462
903,-0.00216817855834961,0.0000607972051565111
904,-0.0021967887878418,0.0000479203551232555
905,-0.00218582153320312,0.0000663232321673542
906,-0.00220155715942383,0.0000762939453125
907,-0.00215625762939453,0.0000653754003988231
908,-0.00230836868286133,0.0000523913638871016
909,-0.00226545333862305,0.0000489739850881357
910,-0.00229597091674805,0.00005691965830353
911,-0.00225400924682617,0.0000737619460133822
912,-0.00224971771240234,0.0000579901427813849
913,-0.00228214263916016,0.0000501948971269636
914,-0.00225925445556641,0.000048186512362136
915,-0.00237703323364258,0.0000609092979385701
916,-0.00228595733642578,0.0000480885013916569
917,-0.00232744216918945,0.0000761582240265712
918,-0.00243330001831055,0.0000595359406281999
919,-0.00235986709594727,0.0000724525779041567
920,-0.00237131118774414,0.0000488868561331552
921,-0.00248432159423828,0.0000579411107756774
922,-0.00244903564453125,0.0000787171353847367
923,-0.00244474411010742,0.0000562172607107746
924,-0.00241756439208984,0.0000570174430458551
925,-0.00248432159423828,0.0000420448984200494
926,-0.00252723693847656,0.0000515712117528713
927,-0.00264549255371094,0.0000692711631673236
928,-0.00266265869140625,0.0000563737692696706
929,-0.00271892547607422,0.0000545962928981726
930,-0.0025944709777832,0.0000628629817874031
931,-0.00268411636352539,0.0000538952567837587
932,-0.0026555061340332,0.0000636376659952218
933,-0.0027470588684082,0.0000769408929883192
934,-0.00285482406616211,0.0000837294006603485
935,-0.00293493270874023,0.0000553048884101791
936,-0.00293302536010742,0.0000965827749069887
937,-0.00307083129882812,0.0000922134519157915
938,-0.00300931930541992,0.0000793127991235491
939,-0.00311088562011719,0.0000591114621488411
940,-0.00307798385620117,0.0000529267766018357
941,-0.00303506851196289,0.0000687108943101694
942,-0.00317716598510742,0.0000738235709424763
943,-0.00337791442871094,0.000083556783555615
944,-0.00327634811401367,0.0000693957811821991
945,-0.00339126586914062,0.0000639139691539581
946,-0.00329399108886719,0.0000975874941899029
947,-0.00348711013793945,0.0000800901913965063
948,-0.00357675552368164,0.0000692974171622656
949,-0.00356340408325195,0.000056500676130671
950,-0.00364017486572266,0.0000660191334733448
951,-0.00385284423828125,0.0000835037035395293
952,-0.00383663177490234,0.000109687057861915
953,-0.0040593147277832,0.0000884041173946937
954,-0.00426197052001953,0.0000990605526169676
955,-0.00433874130249023,0.000131983150527091
956,-0.00429248809814453,0.000131468769342733
957,-0.00435686111450195,0.000113531312480416
958,-0.00427007675170898,0.0000929697956236273
959,-0.00460958480834961,0.000135810723258346
960,-0.00460910797119141,0.00011427390309277
961,-0.00452089309692383,0.0000865035702086149
962,-0.00443935394287109,0.000079557532662302
963,-0.00455904006958008,0.0000827144116468639
964,-0.00462865829467773,0.000119799108485735
965,-0.00447845458984375,0.000137904076132912
966,-0.0045928955078125,0.000147742589805886
967,-0.00452089309692383,0.000155688610042451
968,-0.00448179244995117,0.000167045523570957
969,-0.00432205200195313,0.000152468634732905
970,-0.00474405288696289,0.000173725853526851
971,-0.00412845611572266,0.000114807891564318
972,-0.00417375564575195,0.000151631217303099
973,-0.00401449203491211,0.000163587811602719
974,-0.00398588180541992,0.000160251341333732
975,-0.00413036346435547,0.000148925947361213
976,-0.00410556793212891,0.000140455863445271
977,-0.00392627716064453,0.000119645275120061
978,-0.00419044494628906,0.000113631405346719
979,-0.00402593612670898,0.000190286108444584
980,-0.00408172607421875,0.000171215750524141
981,-0.0039372444152832,0.000216149815706781
982,-0.00363397598266602,0.000207857249844746
983,-0.00389623641967773,0.000141972608557748
984,-0.00366353988647461,0.000170598447990401
985,-0.00361871719360352,0.000246955616907341
986,-0.00359487533569336,0.000170955265337957
987,-0.00382184982299805,0.000173495350513715
988,-0.00353908538818359,0.000183502402813808
989,-0.00341892242431641,0.000191496282928637
990,-0.00337648391723633,0.000136375427246094
991,-0.00325298309326172,0.000176189878145464
992,-0.00335788726806641,0.000208874270421341
993,-0.00305938720703125,0.000167339273253133
994,-0.00273752212524414,0.000171536824286972
995,-0.00277090072631836,0.000169641478870879
996,-0.00302028656005859,0.000218485099989116
997,-0.00308036804199219,0.000253634341613676
998,-0.00296258926391602,0.000220346239267762
999,-0.00286483764648437,0.000310868571958608
1000,-0.00255680084228516,0.000254157336503829
1001,-0.0032806396484375,0.000204620375551455
1002,-0.00352954864501953,0.000198446770159577
1003,-0.00286054611206055,0.000172327655941493
1004,-0.00256204605102539,0.00021702325365272
1005,-0.0026698112487793,0.000172938786202231
1006,-0.00283002853393555,0.000180378112478274
1007,-0.00304985046386719,0.000229698947840975
1008,-0.00267410278320312,0.000130834245448462
1009,-0.0024256706237793,0.000218842802042834
1010,-0.00231838226318359,0.000300278711755875
1011,-0.00289058685302734,0.000302078503734181
1012,-0.00317811965942383,0.000164358789336194
1013,-0.00282049179077148,0.000225732917762408
1014,-0.00247478485107422,0.000184722554716842
1015,-0.00250482559204102,0.000165900960410277
1016,-0.00261640548706055,0.000207428000403691
1017,-0.00310611724853516,0.000325028101214551
1018,-0.00275516510009766,0.000340011309417438
1019,-0.00252485275268555,0.000344607809255529
1020,-0.00270700454711914,0.000265382048613859
1021,-0.00224161148071289,0.000338520800577142
1022,-0.0022282600402832,0.000262806064718142
1023,-0.00315380096435547,0.00024255220938776
1024,-0.00291013717651367,0.000211423379981344
1025,-0.00289773941040039,0.000257873253003931
1026,-0.00241661071777344,0.00035211122922407
1027,-0.00295019149780273,0.000316889774230966
1028,-0.00264692306518555,0.000332738048675264
1029,-0.00279617309570312,0.000408644715129321
1030,-0.00262260437011719,0.000198245012681307
1031,-0.00274753570556641,0.000276229917821987
1032,-0.00307655334472656,0.00035853081202287
1033,-0.0022735595703125,0.00037463745458456
1034,-0.0023655891418457,0.000354571955483616
1035,-0.00305938720703125,0.000375926754488537
1036,-0.00293588638305664,0.000457755724520042
1037,-0.00308084487915039,0.000342436812987429
1038,-0.0028080940246582,0.000358713409850864
1039,-0.00326681137084961,0.000311937524439241
1040,-0.00335884094238281,0.000425017881608918
1041,-0.00337457656860352,0.000527946383910467
1042,-0.00300359725952148,0.000451908816372175
1043,-0.00319099426269531,0.000359361895161607
1044,-0.00326299667358398,0.000426077948774037
1045,-0.00410747528076172,0.000592556463592512
1046,-0.00274229049682617,0.000607340058952679
1047,-0.0035710334777832,0.000517113134852006
1048,-0.00258970260620117,0.000532693483114965
1049,-0.00451564788818359,0.000486205576772644
1050,-0.00368785858154297,0.000397333271086819
1051,-0.00284671783447266,0.000548879131478761
1052,-0.00331926345825195,0.000492775617716378
1053,-0.00437784194946289,0.000433316699645441
1054,-0.00513219833374023,0.000449139092991509
1055,-0.00353479385375977,0.000745517169642822
1056,-0.00391864776611328,0.000673215715642086
1057,-0.00252246856689453,0.000535472630168658
1058,-0.00361108779907227,0.000519121294221423
1059,-0.00281238555908203,0.000844505396869824
1060,-0.00381612777709961,0.000756234268249474
1061,-0.00367641448974609,0.000709287539207548
1062,-0.00384807586669922,0.000744501478204371
1063,-0.00353002548217773,0.000824257131107758
1064,-0.00297355651855469,0.000765186814528693
1065,-0.00505828857421875,0.000831586505110833
1066,-0.0039210319519043,0.00100751347319525
1067,-0.00305843353271484,0.00128699541528073
1068,-0.00359678268432617,0.000921405360443154
1069,-0.00303030014038086,0.00119357970025345
1070,-0.00471210479736328,0.00100055662510961
1071,-0.0029444694519043,0.00108194929115497
1072,-0.00118303298950195,0.000885568639624928
1073,-0.00195026397705078,0.00142651317047366
1074,-0.00334692001342773,0.00131163471513926
1075,-0.00331544876098633,0.00105743518295341
1076,-0.00344562530517578,0.0014299773172642
1077,-0.00170087814331055,0.00135012262745506
1078,-0.00257110595703125,0.00122707610705676
1079,-0.0017704963684082,0.000868511990577922
1080,-0.00358772277832031,0.000717203666675172
1081,-0.00256776809692383,0.00112333604987246
1082,-0.000800132751464844,0.00127483963711713
1083,-0.00252676010131836,0.00133108338977881
1084,-0.000913143157958984,0.00179474107871566
1085,-0.00471591949462891,0.00147636176818749
1086,-0.00399160385131836,0.00151115947303954
1087,-0.00338602066040039,0.000835706060448432
1088,-0.00501441955566406,0.000695615040934032
1089,-0.00336408615112305,0.00132426598838789
1090,-0.00190973281860352,0.0018427791342675
1091,-0.00315570831298828,0.00204928434327324
1092,0.0000395774841308594,0.0018409145644771
1093,-0.00448274612426758,0.0019797654040995
1094,-0.0078730583190918,0.00259910528739668
1095,-0.00530052185058594,0.00212645336896952
1096,-0.0055689811706543,0.00180450906531976
1097,-0.008880615234375,0.00194296578873737
1098,-0.00344085693359375,0.00236953813468217
1099,-0.0030059814453125,0.00305473182724111
1100,-0.0017857551574707,0.00235781620965745
