Wavelength (nm),Absorbance (AU),Std.Dev.
190,0.195884227752686,0.0000663883372648511
191,0.190978527069092,0.0000416919045540576
192,0.184576511383057,0.0000453559624368466
193,0.176679611206055,0.0000518975420657164
194,0.168240070343018,0.0000378402658698873
195,0.1594557762146,0.000041861305720689
196,0.151126861572266,0.0000528730492744133
197,0.143488883972168,0.0000431550800269986
198,0.136287689208984,0.0000353197631690714
199,0.129716396331787,0.0000326267789554279
200,0.123616695404053,0.0000440629528584928
201,0.118209362030029,0.0000429530772583903
202,0.113558292388916,0.0000298280604801815
203,0.1094970703125,0.0000433672844022853
204,0.106020450592041,0.0000419189766960521
205,0.102925300598145,0.0000358207550722346
206,0.100119113922119,0.0000394984110320116
207,0.0974760055541992,0.0000408371426833267
208,0.0950126647949219,0.0000364468634502096
209,0.0927910804748535,0.0000389447827320179
210,0.0906877517700195,0.0000513126413433632
211,0.0885763168334961,0.000044374046799209
212,0.0865855216979981,0.0000359617105057899
213,0.084568977355957,0.0000376610805396617
214,0.0827312469482422,0.0000299231939120049
215,0.0809626579284668,0.0000243011579671614
216,0.0792655944824219,0.0000344603520501625
217,0.0775771141052246,0.0000384497547161473
218,0.0760073661804199,0.0000341571540400848
219,0.0743074417114258,0.0000261130935098516
220,0.0726513862609863,0.0000235769334952585
221,0.0709524154663086,0.0000239631428934496
222,0.0692577362060547,0.0000305548083183304
223,0.0676064491271973,0.0000243321316194193
224,0.0659580230712891,0.0000251138637801931
225,0.0643072128295898,0.0000279367167175904
226,0.0628294944763184,0.0000269412994384766
227,0.0614514350891113,0.00003233979071701
228,0.0600976943969727,0.0000359545968094831
229,0.0588726997375488,0.0000311252692782689
230,0.0576939582824707,0.0000364343843183393
231,0.056668758392334,0.000045154993461822
232,0.0556674003601074,0.0000298375874728165
233,0.0546178817749023,0.0000255152439967333
234,0.0536599159240723,0.0000298480636525294
235,0.0528068542480469,0.0000300218128942436
236,0.051971435546875,0.0000219364528209592
237,0.0512833595275879,0.0000249850840688879
238,0.050687313079834,0.0000306578852966649
239,0.0500278472900391,0.0000311380506054699
240,0.0495662689208984,0.000026560407560353
241,0.0491647720336914,0.0000338520800577142
242,0.0486955642700195,0.0000314495705563376
243,0.0482954978942871,0.0000261392022584262
244,0.0479831695556641,0.0000336525100692932
245,0.0476822853088379,0.00003140163669267
246,0.0474362373352051,0.0000275427639572886
247,0.0471811294555664,0.0000250390592539992
248,0.0469789505004883,0.0000257751325493332
249,0.0467643737792969,0.0000308952211435796
250,0.0465455055236816,0.0000270492156238751
251,0.0462884902954102,0.0000231849043659281
252,0.0460720062255859,0.0000247949590983544
253,0.0458288192749023,0.0000405374690360301
254,0.0456104278564453,0.0000411270321275704
255,0.0453228950500488,0.0000239827048879622
256,0.0451064109802246,0.00002233512578703
257,0.0448098182678223,0.0000280255943756634
258,0.0445666313171387,0.0000306300608601687
259,0.0442795753479004,0.0000278908979258495
260,0.0439648628234863,0.0000421218901867236
261,0.0435862541198731,0.0000337301204933969
262,0.0432748794555664,0.000029400984177682
263,0.0428719520568848,0.0000348515447895462
264,0.042452335357666,0.0000302951124923907
265,0.041987419128418,0.0000340421324290253
266,0.0415244102478027,0.0000356210442829931
267,0.0411405563354492,0.0000333095585792444
268,0.0407123565673828,0.0000295268680489083
269,0.0403151512145996,0.0000468078277275392
270,0.0397863388061523,0.0000400933291454425
271,0.0393280982971191,0.0000443970989189314
272,0.0388498306274414,0.0000511717591376531
273,0.0383725166320801,0.0000460376336885823
274,0.0379619598388672,0.0000497101308056723
275,0.037562370300293,0.0000395889725154644
276,0.037083625793457,0.0000343372420851017
277,0.0366806983947754,0.0000350605038877791
278,0.0362443923950195,0.0000365939511603067
279,0.0356297492980957,0.0000264918340430587
280,0.0350923538208008,0.0000291012315185758
281,0.0345802307128906,0.0000333368517131966
282,0.034090518951416,0.0000349110261062975
283,0.0335464477539062,0.0000349419489111769
284,0.0330352783203125,0.0000336119465348045
285,0.0325641632080078,0.0000358255154109216
286,0.0320906639099121,0.000029545632222808
287,0.0315890312194824,0.0000317356533787442
288,0.0310311317443848,0.0000304844982449428
289,0.030609130859375,0.0000256624127706631
290,0.0301599502563477,0.0000253543334342845
291,0.0297055244445801,0.0000246645143606836
292,0.029322624206543,0.0000348172766112686
293,0.028803825378418,0.0000570154491152344
294,0.0284290313720703,0.0000459721471463411
295,0.0280375480651855,0.0000397408800812047
296,0.0276999473571777,0.0000359166333002855
297,0.0272727012634277,0.0000402136596590155
298,0.0268778800964355,0.0000470065673917733
299,0.026580810546875,0.0000329544157486631
300,0.0262017250061035,0.0000229829821773428
301,0.0258378982543945,0.00003750074909407
302,0.0254578590393066,0.0000412553711355299
303,0.0251374244689941,0.0000317499793712936
304,0.0249233245849609,0.0000379812096154083
305,0.0246381759643555,0.0000350840047886774
306,0.0242395401000977,0.0000356114683042503
307,0.0239381790161133,0.0000403167156688737
308,0.0237522125244141,0.0000425755773190723
309,0.0234818458557129,0.0000380410272910505
310,0.0232086181640625,0.0000428987841974415
311,0.0228519439697266,0.0000385036778413275
312,0.022550106048584,0.0000338176395400477
313,0.0222630500793457,0.000029363258969003
314,0.0220546722412109,0.0000341313496090237
315,0.021815299987793,0.0000268879717119233
316,0.0215401649475098,0.0000423526967921956
317,0.0211896896362305,0.0000666447100384426
318,0.0210018157958984,0.0000382882719957461
319,0.0206513404846191,0.000038839550071134
320,0.0204029083251953,0.0000485074889096961
321,0.0202293395996094,0.0000740173541124288
322,0.0198769569396973,0.0000469109381464208
323,0.0195155143737793,0.000040001777972132
324,0.0193390846252441,0.0000633278523831949
325,0.0190262794494629,0.0000441917695773989
326,0.0187773704528809,0.0000441209669239833
327,0.0184798240661621,0.0000411774494256145
328,0.0182151794433594,0.0000511928606659043
329,0.0178418159484863,0.0000562991033292597
330,0.0176119804382324,0.0000680876043682847
331,0.0173835754394531,0.0000395063254639204
332,0.0170998573303223,0.0000452354881940205
333,0.0168375968933105,0.0000493440067635762
334,0.0165977478027344,0.0000359158419671364
335,0.0163102149963379,0.0000387721685644862
336,0.0159950256347656,0.0000539900964916922
337,0.0157380104064941,0.0000479013720652694
338,0.0155010223388672,0.000058393572623915
339,0.0152473449707031,0.0000540132542031316
340,0.0150127410888672,0.0000441312725514346
341,0.0147342681884766,0.0000341870960334023
342,0.0144672393798828,0.0000334347525086795
343,0.0141997337341309,0.0000486876190969883
344,0.0140500068664551,0.0000384305309466512
345,0.0137743949890137,0.0000433187597171594
346,0.0135889053344727,0.0000360138346770662
347,0.0132827758789062,0.0000611839864057367
348,0.0130867958068848,0.0000482431025312109
349,0.0128302574157715,0.0000481274935119231
350,0.0127534866333008,0.0000511195231968087
351,0.0124483108520508,0.0000518624805968218
352,0.0121898651123047,0.0000664773251260508
353,0.0119242668151855,0.0000446078549208707
354,0.0117559432983398,0.0000444776872509559
355,0.0115432739257812,0.0000672982632848259
356,0.0114612579345703,0.00004968839959991
357,0.011258602142334,0.0000407395893928482
358,0.0111083984375,0.0000451386254293017
359,0.0108985900878906,0.0000584208229592894
360,0.0106515884399414,0.0000588512490197874
361,0.0104184150695801,0.0000625438782961639
362,0.0102324485778809,0.0000613287480646878
363,0.0100536346435547,0.0000693072598463806
364,0.00995922088623047,0.0000661808062059007
365,0.00971078872680664,0.0000537928534335955
366,0.0095977783203125,0.0000604737810611255
367,0.00940656661987305,0.0000513513992112472
368,0.00927019119262695,0.0000469024552652979
369,0.00923633575439453,0.000051353613063039
370,0.00903558731079102,0.0000629966676196938
371,0.00892114639282227,0.0000827199092648718
372,0.00869131088256836,0.0000653145075665883
373,0.00861454010009766,0.0000597408645450892
374,0.00851631164550781,0.0000573890903290444
375,0.00831985473632813,0.000038563422102252
376,0.00820350646972656,0.0000443291889167638
377,0.0081324577331543,0.0000509513389360192
378,0.00793886184692383,0.0000507993851285915
379,0.00784969329833984,0.0000697748173669447
380,0.00770425796508789,0.0000778238561932096
381,0.00754356384277344,0.0000830491003617438
382,0.00763654708862305,0.0000662683572114971
383,0.00737857818603516,0.000076010295967142
384,0.00711917877197266,0.0000523924488527538
385,0.00701808929443359,0.0000645810756232443
386,0.00701761245727539,0.000056693511763389
387,0.00690937042236328,0.0000938848651393415
388,0.00681257247924805,0.0000874914976296089
389,0.00653314590454102,0.0000649969452338743
390,0.00651979446411133,0.0000629948629454079
391,0.00632524490356445,0.0000541267938094069
392,0.00642490386962891,0.0000540437651159321
393,0.00638389587402344,0.0000659174554857829
394,0.00618553161621094,0.0000583029711753725
395,0.00603342056274414,0.0000595683941278181
396,0.00585317611694336,0.0000557583531963869
397,0.005889892578125,0.0000650389103379345
398,0.00563621520996094,0.000065451871012416
399,0.00551223754882813,0.0000438249408039416
400,0.00552129745483398,0.0000545452522514535
401,0.0052952766418457,0.0000900275626397241
402,0.00542068481445313,0.0000676302362498909
403,0.00521469116210938,0.0000691594725010525
404,0.00513982772827148,0.0000844553858475242
405,0.00515222549438477,0.0000512084035963512
406,0.00488853454589844,0.0000763013955293346
407,0.00486993789672852,0.0000598938600982427
408,0.00495767593383789,0.0000564422941298024
409,0.00464105606079102,0.0000678819188483394
410,0.00449943542480469,0.0000626873131716887
411,0.00466346740722656,0.000046764088897497
412,0.00461769104003906,0.0000444162998794722
413,0.00443696975708008,0.0000394552134568055
414,0.00426816940307617,0.0000629352796626908
415,0.00416994094848633,0.0000876965632062733
416,0.00406742095947266,0.0000633242618600236
417,0.00401496887207031,0.0000721821845941342
418,0.00391817092895508,0.0000522631798027976
419,0.00387048721313477,0.0000535810947348407
420,0.00394392013549805,0.0000568267069737681
421,0.00395870208740234,0.0000726766157752704
422,0.00347375869750977,0.0000536277533917255
423,0.00366783142089844,0.000062987643731203
424,0.00341606140136719,0.0000851404730243242
425,0.00355386734008789,0.000067920427715583
426,0.00336933135986328,0.0000474147362741264
427,0.00356817245483398,0.0000526586712599923
428,0.00316381454467773,0.0000560816045202748
429,0.00346183776855469,0.0000555049512693964
430,0.00316905975341797,0.0000475607717572686
431,0.00300931930541992,0.0000572303922296515
432,0.00310277938842773,0.0000559385066072537
433,0.00306940078735352,0.000059911889699663
434,0.00265216827392578,0.0000545733825943855
435,0.00268173217773437,0.000042916006507002
436,0.00279331207275391,0.0000420712535644927
437,0.00280570983886719,0.000050266191106577
438,0.00279426574707031,0.0000550648858064123
439,0.00258016586303711,0.00005330455079237
440,0.00268411636352539,0.0000440397258339646
441,0.00270843505859375,0.0000623946477747813
442,0.00241374969482422,0.0000627126977903326
443,0.00246572494506836,0.0000385295046291652
444,0.00237035751342773,0.0000339593769355104
445,0.00240659713745117,0.0000483607860317539
446,0.00224590301513672,0.0000520091427530815
447,0.00213956832885742,0.0000566463678861462
448,0.00223541259765625,0.0000647059414552611
449,0.00225687026977539,0.0000504896025160805
450,0.00208711624145508,0.0000581956260875931
451,0.00209760665893555,0.0000475416451202885
452,0.00194311141967773,0.0000540122017952832
453,0.00184726715087891,0.0000580802535193829
454,0.00197076797485352,0.0000390621030217354
455,0.00178241729736328,0.0000506278919497104
456,0.00174236297607422,0.0000849104933128376
457,0.00176429748535156,0.00005882516439901
458,0.00159597396850586,0.0000392653033830339
459,0.00146818161010742,0.0000412312518348665
460,0.00148963928222656,0.0000409927450698682
461,0.00141000747680664,0.0000541141900616963
462,0.0013117790222168,0.0000514630796937257
463,0.0014338493347168,0.0000539047482632725
464,0.0012660026550293,0.0000552565597978144
465,0.00119972229003906,0.0000618217122904671
466,0.00111675262451172,0.0000673337292026667
467,0.0011601448059082,0.0000709318312903864
468,0.00117635726928711,0.0000692662394354396
469,0.00114822387695312,0.0000606399271611178
470,0.0012354850769043,0.0000605836574980611
471,0.000985145568847656,0.000057474209492948
472,0.00102472305297852,0.000045664471720254
473,0.000979423522949219,0.0000465875028193546
474,0.00117826461791992,0.0000579823004468056
475,0.00104665756225586,0.0000611821282632594
476,0.000765323638916016,0.000071830101233103
477,0.000841617584228516,0.0000540111493669285
478,0.00064849853515625,0.0000545890042990253
479,0.000681877136230469,0.0000356018897498194
480,0.000650882720947266,0.0000405900191212281
481,0.000665664672851563,0.0000568597070967422
482,0.000568866729736328,0.0000719123555050234
483,0.000577449798583984,0.0000519993052681564
484,0.000436782836914063,0.0000429775528905858
485,0.00208044052124023,0.0000387090754367874
486,-0.000933170318603516,0.0000432491565355181
487,0.000413417816162109,0.0000343074311328011
488,0.00022125244140625,0.0000504805949601431
489,0.000369071960449219,0.0000781780301358002
490,0.000260353088378906,0.0000747570569827304
491,0.000293254852294922,0.0000633422124406092
492,0.000345230102539062,0.0000670240382678628
493,0.000284194946289062,0.000048324334797695
494,0.000148296356201172,0.0000466192157454856
495,0.000246524810791016,0.0000481994868109736
496,0.0000944137573242188,0.0000668576030496046
497,0.000192165374755859,0.0000670036806573088
498,0.0000391006469726562,0.0000657776076640772
499,0.0000500679016113281,0.0000714794646096686
500,-0.0000858306884765625,0.0000425060944864473
501,-0.000172615051269531,0.0000515171740938022
502,-0.000128269195556641,0.0000594116902434255
503,-0.0000615119934082031,0.000040489764674107
504,-0.000188827514648437,0.0000462925144170465
505,-0.0000481605529785156,0.0000651785988801642
506,-0.000228404998779297,0.000085368501482142
507,-0.000306606292724609,0.000071258044598475
508,-0.000322341918945312,0.0000651628988681624
509,-0.000264167785644531,0.000087657663600672
510,-0.000331878662109375,0.0000543824364707036
511,-0.000325202941894531,0.0000589631849916941
512,-0.000308990478515625,0.000085010851661936
513,-0.000529766082763672,0.0000501223676612775
514,-0.00037384033203125,0.0000594145604889399
515,-0.000527858734130859,0.0000618272288846235
516,-0.000511646270751953,0.0000718759854175626
517,-0.000505447387695313,0.0000755301629607053
518,-0.000585079193115234,0.0000919022445210904
519,-0.000627040863037109,0.0000816826366629175
520,-0.000697135925292969,0.0000677461263750308
521,-0.000678062438964844,0.0000494027229230096
522,-0.000699520111083984,0.0000552915251478197
523,-0.000747203826904297,0.0000599042989499319
524,-0.000801563262939453,0.0000536372922077841
525,-0.000836849212646484,0.000066675408527178
526,-0.000810623168945313,0.0000507691637199637
527,-0.000730514526367188,0.0000551690494705419
528,-0.000638484954833984,0.0000568667046609118
529,-0.000868797302246094,0.0000698269367522639
530,-0.000790596008300781,0.0000546608066365819
531,-0.000826835632324219,0.0000447338319125009
532,-0.000927448272705078,0.0000368161828919834
533,-0.000833988189697266,0.0000486689353071327
534,-0.000834465026855469,0.0000508999935642227
535,-0.00100374221801758,0.0000562819363511721
536,-0.000991344451904297,0.0000495899181967089
537,-0.00105476379394531,0.000040001777972132
538,-0.0009765625,0.0000401917438933227
539,-0.000966548919677734,0.0000597760596693224
540,-0.00102567672729492,0.0000597893713407199
541,-0.00101804733276367,0.000050456942475123
542,-0.00106573104858398,0.0000472237335324858
543,-0.00111913681030273,0.0000504501825855124
544,-0.00112819671630859,0.0000625093322032154
545,-0.0012054443359375,0.0000646637602633889
546,-0.00108718872070312,0.0000715954756894053
547,-0.0010528564453125,0.0000566052103109425
548,-0.00118684768676758,0.0000442072023592828
549,-0.0012669563293457,0.0000579077452974711
550,-0.00123691558837891,0.0000462802336065328
551,-0.00115871429443359,0.0000436859353205671
552,-0.00111150741577148,0.0000374355132006276
553,-0.00115489959716797,0.0000446689790442101
554,-0.00121831893920898,0.0000565057062376145
555,-0.00121641159057617,0.0000466667447267889
556,-0.00134849548339844,0.0000405023977673428
557,-0.00124788284301758,0.0000353969297896008
558,-0.001220703125,0.0000407242383438037
559,-0.00132179260253906,0.000053402568517317
560,-0.0013422966003418,0.0000484547270410928
561,-0.00141048431396484,0.0000489484433356471
562,-0.00139760971069336,0.0000413874326813296
563,-0.00128936767578125,0.0000467154421674904
564,-0.0013890266418457,0.0000330457095510897
565,-0.00146198272705078,0.0000388388182918747
566,-0.00149869918823242,0.0000468393914814416
567,-0.00148868560791016,0.0000390853793877482
568,-0.00150775909423828,0.0000384844810075224
569,-0.00151634216308594,0.0000384977721427857
570,-0.00151395797729492,0.0000363797377854238
571,-0.00154209136962891,0.0000424150605743492
572,-0.00168704986572266,0.0000329285319255188
573,-0.00141000747680664,0.000037796677139794
574,-0.00159311294555664,0.0000477587586229875
575,-0.00146961212158203,0.0000373481010953083
576,-0.0013432502746582,0.0000365403210935744
577,-0.00147438049316406,0.0000278215174752856
578,-0.00161123275756836,0.0000287385882453907
579,-0.00147438049316406,0.0000320963125610159
580,-0.00141429901123047,0.0000343546198611913
581,-0.00138187408447266,0.0000339267208629496
582,-0.00176620483398437,0.0000293002756822318
583,-0.00176572799682617,0.0000334168963777394
584,-0.00136327743530273,0.0000314793792982083
585,-0.00154733657836914,0.0000353776539142616
586,-0.00174760818481445,0.0000398408788591467
587,-0.00148534774780273,0.0000415471310747945
588,-0.00175333023071289,0.0000327615236967052
589,-0.00170803070068359,0.0000296239282014149
590,-0.00162982940673828,0.0000333666780157658
591,-0.00171184539794922,0.0000310932929742834
592,-0.00143527984619141,0.0000228794895985287
593,-0.00172662734985352,0.0000326642154661239
594,-0.00156831741333008,0.0000347281847779259
595,-0.00168418884277344,0.0000244009506138088
596,-0.00179147720336914,0.0000385295046291652
597,-0.00162935256958008,0.00003762408350898
598,-0.00164175033569336,0.0000322632404785867
599,-0.00155878067016602,0.0000240844071499615
600,-0.00150394439697266,0.0000229904008289813
601,-0.00164794921875,0.0000245466950916934
602,-0.00166511535644531,0.0000293356598671856
603,-0.00175142288208008,0.0000354129850041923
604,-0.00180530548095703,0.0000289980119181976
605,-0.00161552429199219,0.0000353856868050612
606,-0.001739501953125,0.0000304074834734791
607,-0.00167751312255859,0.0000289837966049041
608,-0.00179386138916016,0.0000322191637885914
609,-0.00182485580444336,0.0000300643842994615
610,-0.00165128707885742,0.0000351988516501628
611,-0.00182294845581055,0.0000273080356678202
612,-0.00174379348754883,0.0000269924159950236
613,-0.00175237655639648,0.0000244689952973327
614,-0.00197744369506836,0.0000254416196530021
615,-0.00194120407104492,0.0000368107785682936
616,-0.00207853317260742,0.0000388051415284324
617,-0.00187158584594727,0.0000396628493299821
618,-0.0017085075378418,0.0000425081003897771
619,-0.00162744522094727,0.000035255328630016
620,-0.0016326904296875,0.0000302336004635773
621,-0.0017695426940918,0.000031462220138479
622,-0.00170135498046875,0.0000270712721840509
623,-0.00192642211914062,0.0000372215615993536
624,-0.00184965133666992,0.0000565800995351103
625,-0.00192880630493164,0.0000379415284701337
626,-0.00188207626342773,0.0000340971911740558
627,-0.00175333023071289,0.0000293521256123613
628,-0.0018467903137207,0.0000373960130336591
629,-0.00180673599243164,0.0000400259280613581
630,-0.00197649002075195,0.0000424565855374061
631,-0.00192594528198242,0.0000301370892184031
632,-0.00187158584594727,0.0000325858107819937
633,-0.00185203552246094,0.0000479630395335502
634,-0.00195169448852539,0.0000459919264942053
635,-0.00189924240112305,0.000040065672946167
636,-0.00186061859130859,0.0000362607931748514
637,-0.0020442008972168,0.0000437665343472785
638,-0.00214672088623047,0.0000292143032175269
639,-0.00211906433105469,0.0000288584983970008
640,-0.00192165374755859,0.0000287657721668789
641,-0.00173759460449219,0.0000296795222396944
642,-0.00172853469848633,0.0000320865704369749
643,-0.00162935256958008,0.0000444840768970477
644,-0.00174188613891602,0.0000448252291671983
645,-0.00195980072021484,0.0000436312513876059
646,-0.00197505950927734,0.0000417157575144546
647,-0.00199747085571289,0.0000457453125679756
648,-0.00187540054321289,0.0000557838338778904
649,-0.00200557708740234,0.0000444022199869361
650,-0.00199699401855469,0.0000276323944646099
651,-0.00199508666992187,0.0000351592637858928
652,-0.00201511383056641,0.0000445109033942764
653,-0.00194549560546875,0.0000349330003879402
654,-0.00207233428955078,0.0000416093361117729
655,-0.000402927398681641,0.0000224658121612621
656,-0.00286340713500977,0.0000351107280590184
657,-0.00404214859008789,0.0000383298187300233
658,-0.0019989013671875,0.0000461855619882521
659,-0.00212860107421875,0.0000283196715501282
660,-0.00200080871582031,0.000026427384770978
661,-0.0020289421081543,0.0000312610309659648
662,-0.00208902359008789,0.0000299867644629947
663,-0.00209379196166992,0.0000318616794509513
664,-0.00203895568847656,0.0000397229966663792
665,-0.0020599365234375,0.0000347470029873594
666,-0.0020604133605957,0.000032324846875111
667,-0.00212812423706055,0.0000299474045799698
668,-0.00209951400756836,0.0000319480895996094
669,-0.00211524963378906,0.0000362654957526092
670,-0.00203609466552734,0.0000584159577602904
671,-0.00202560424804687,0.0000385892089047779
672,-0.00204896926879883,0.000042161681591407
673,-0.00211191177368164,0.0000363945785288764
674,-0.00214672088623047,0.0000422465343595383
675,-0.00216913223266602,0.0000442765833107247
676,-0.00210475921630859,0.0000401167156530441
677,-0.00212287902832031,0.0000434144455519896
678,-0.00213289260864258,0.0000426116102567222
679,-0.00217390060424805,0.0000397837674782107
680,-0.00215721130371094,0.0000418395736980845
681,-0.00201034545898437,0.0000332754106810071
682,-0.00204801559448242,0.0000366707616499867
683,-0.00203752517700195,0.0000310072505490523
684,-0.00210809707641602,0.0000333249137175718
685,-0.00209522247314453,0.0000359166333002855
686,-0.00208663940429687,0.0000298946856703599
687,-0.00214433670043945,0.0000236082553766733
688,-0.00206089019775391,0.0000298437783871374
689,-0.00214529037475586,0.0000478978119043262
690,-0.00210857391357422,0.0000366436248251999
691,-0.00209808349609375,0.000036474146666075
692,-0.002105712890625,0.0000470355808092411
693,-0.00208520889282227,0.0000449758813541293
694,-0.00211429595947266,0.000050490728347584
695,-0.00210189819335937,0.0000417321059504243
696,-0.00217628479003906,0.0000352012739506222
697,-0.00212430953979492,0.0000319712113932996
698,-0.0021367073059082,0.0000359506441477506
699,-0.0021209716796875,0.0000306745678437848
700,-0.00219964981079102,0.0000343984390199116
701,-0.00216388702392578,0.000036679286219849
702,-0.00213766098022461,0.0000328818896986081
703,-0.00212192535400391,0.0000377168848184813
704,-0.00217247009277344,0.0000315371098835572
705,-0.00213623046875,0.0000266207983151838
706,-0.00205802917480469,0.0000406110201155731
707,-0.002166748046875,0.0000359506441477506
708,-0.00229358673095703,0.0000372986036360534
709,-0.00221490859985352,0.0000424184108686313
710,-0.00218296051025391,0.0000409184909612403
711,-0.00226593017578125,0.0000389907327121755
712,-0.00222396850585937,0.0000407039940243703
713,-0.00220775604248047,0.0000417157575144546
714,-0.00217580795288086,0.0000329371621266696
715,-0.00224637985229492,0.0000347257294770489
716,-0.00223112106323242,0.0000302566234195641
717,-0.00215911865234375,0.0000427933123515788
718,-0.00220775604248047,0.0000391420575411584
719,-0.00225925445556641,0.0000294405918892539
720,-0.0023646354675293,0.0000326903085727741
721,-0.00231170654296875,0.0000347829746720064
722,-0.00229310989379883,0.0000360540608324355
723,-0.00234699249267578,0.0000447211230762228
724,-0.00232028961181641,0.0000516824172448365
725,-0.00236225128173828,0.0000578753427617666
726,-0.00240278244018555,0.0000385626850830903
727,-0.00230169296264648,0.0000392406851815871
728,-0.00225257873535156,0.0000389754220713033
729,-0.00233602523803711,0.0000451587698575852
730,-0.00240468978881836,0.0000420374619303402
731,-0.0024266242980957,0.0000403019087702894
732,-0.00244235992431641,0.0000331144438764091
733,-0.0024266242980957,0.0000328775676268352
734,-0.00237894058227539,0.0000348825203237159
735,-0.00241661071777344,0.0000379108032423038
736,-0.00251436233520508,0.0000317947064937013
737,-0.00260448455810547,0.0000376557974750616
738,-0.00268983840942383,0.0000441827646319
739,-0.00246810913085937,0.0000351107280590184
740,-0.00255107879638672,0.0000345731602808461
741,-0.00255107879638672,0.0000352367818930252
742,-0.00254249572753906,0.0000423996458109253
743,-0.00263357162475586,0.0000325290676487037
744,-0.00260448455810547,0.0000391986537425267
745,-0.00262355804443359,0.0000472369724258674
746,-0.00258827209472656,0.0000444930208599787
747,-0.00256967544555664,0.0000331633301723291
748,-0.00259590148925781,0.0000518175234192944
749,-0.00253438949584961,0.0000397408800812047
750,-0.00253200531005859,0.0000470259116590085
751,-0.00262641906738281,0.000049686111551669
752,-0.0026397705078125,0.0000386569093233251
753,-0.00253200531005859,0.0000273210423441475
754,-0.00260686874389648,0.0000455310826343243
755,-0.00259923934936523,0.0000372307234541689
756,-0.00250816345214844,0.0000337924169229544
757,-0.00250053405761719,0.0000337562316392656
758,-0.00256967544555664,0.0000340095558186184
759,-0.00264644622802734,0.000053941643696193
760,-0.00255727767944336,0.0000422868805957982
761,-0.00261878967285156,0.0000385464670962549
762,-0.00260257720947266,0.000036474146666075
763,-0.0025944709777832,0.0000483219821609614
764,-0.00255203247070312,0.0000382176876279618
765,-0.00256013870239258,0.0000365442099752591
766,-0.00264263153076172,0.0000356042846300116
767,-0.00257301330566406,0.0000362294270575028
768,-0.00258445739746094,0.000037639188730204
769,-0.00249767303466797,0.0000431662746858851
770,-0.00256252288818359,0.0000328343156181773
771,-0.00258207321166992,0.0000311088284270761
772,-0.00265407562255859,0.0000449278288341123
773,-0.00256252288818359,0.0000367102679689489
774,-0.00255823135375977,0.0000344042222835891
775,-0.00257301330566406,0.0000500065563953835
776,-0.00260066986083984,0.0000371099111928444
777,-0.00259256362915039,0.0000339267208629496
778,-0.002593994140625,0.0000381410117260384
779,-0.00253105163574219,0.0000336541991555526
780,-0.00257253646850586,0.0000377161312569532
781,-0.00248241424560547,0.0000348711114860196
782,-0.00249576568603516,0.0000388644223676281
783,-0.00262260437011719,0.0000307486029912225
784,-0.00250148773193359,0.0000276087273378185
785,-0.00254058837890625,0.0000427235183831974
786,-0.00257110595703125,0.0000483349202459175
787,-0.0025482177734375,0.0000478110996115811
788,-0.00259113311767578,0.0000512605489656491
789,-0.00263071060180664,0.0000485379474030892
790,-0.002685546875,0.0000482619511752319
791,-0.00258064270019531,0.0000469278993084649
792,-0.00258207321166992,0.0000498859186316758
793,-0.00257587432861328,0.000039006765985496
794,-0.00258874893188477,0.0000323476993678029
795,-0.00263690948486328,0.0000408962579356786
796,-0.00271844863891602,0.0000453534558208876
797,-0.00270795822143555,0.000046598482813101
798,-0.00266456604003906,0.0000475117443354841
799,-0.00270462036132812,0.0000393079866118132
800,-0.00271940231323242,0.0000347666285201229
801,-0.00260829925537109,0.0000331170186384649
802,-0.00265312194824219,0.0000483525575098674
803,-0.00259590148925781,0.000040060706991979
804,-0.00267505645751953,0.0000535694237207106
805,-0.00264978408813477,0.0000389316442049984
806,-0.00269317626953125,0.000022671087167126
807,-0.00271987915039062,0.0000267039452068198
808,-0.00262641906738281,0.0000390628306181148
809,-0.00278711318969727,0.0000430680577789042
810,-0.00279569625854492,0.0000335840306847786
811,-0.00277471542358398,0.0000418782760164803
812,-0.00274133682250977,0.0000469654343690633
813,-0.00269460678100586,0.0000396671485928347
814,-0.00268316268920898,0.0000451663217018685
815,-0.00270509719848633,0.0000407012009142301
816,-0.00287723541259766,0.0000482902103468787
817,-0.00275611877441406,0.0000393224449882214
818,-0.00275564193725586,0.0000432333817666521
819,-0.00286197662353516,0.0000419955225419976
820,-0.00274419784545898,0.000043348930098684
821,-0.00279998779296875,0.0000466082406360146
822,-0.00282764434814453,0.0000331238836921536
823,-0.00286483764648437,0.0000288486480712891
824,-0.00280094146728516,0.0000299331653821223
825,-0.00286102294921875,0.0000323696577038015
826,-0.00292491912841797,0.0000353921118049879
827,-0.00291347503662109,0.0000342734481889202
828,-0.00291252136230469,0.0000426316153955795
829,-0.00285148620605469,0.00004967924677467
830,-0.00289011001586914,0.000060943818294928
831,-0.00298547744750977,0.0000481888716126631
832,-0.00298023223876953,0.0000368408782758977
833,-0.00303125381469727,0.0000334619435287342
834,-0.00296831130981445,0.0000457527675990001
835,-0.00300693511962891,0.0000449189714472988
836,-0.00301170349121094,0.0000433371267986365
837,-0.00298595428466797,0.0000466691808056529
838,-0.00302696228027344,0.000050201691391952
839,-0.00302028656005859,0.0000383357503021309
840,-0.00302982330322266,0.0000275577226196287
841,-0.00305461883544922,0.0000409080707350296
842,-0.00300312042236328,0.0000486841164325722
843,-0.00302982330322266,0.000043684634117674
844,-0.00300455093383789,0.0000465472206828567
845,-0.0030059814453125,0.0000462925144170465
846,-0.00298690795898437,0.0000435595376648303
847,-0.00292634963989258,0.0000467981115203297
848,-0.00298976898193359,0.0000377695967642076
849,-0.00295257568359375,0.0000359474817054373
850,-0.00297403335571289,0.0000307633886399661
851,-0.00296926498413086,0.0000403575826904775
852,-0.00291919708251953,0.0000410045300727108
853,-0.00295162200927734,0.0000468126850749011
854,-0.00296878814697266,0.0000343132297352481
855,-0.00308418273925781,0.000047289890936879
856,-0.00297975540161133,0.0000526035895176758
857,-0.00290489196777344,0.0000507389243106907
858,-0.0029449462890625,0.0000458185676922289
859,-0.00293731689453125,0.0000500781185079984
860,-0.00294256210327148,0.0000559750770219009
861,-0.00295066833496094,0.0000453785157497646
862,-0.00289583206176758,0.0000429663090611989
863,-0.00298213958740234,0.0000462175507134621
864,-0.00301551818847656,0.0000342452416332157
865,-0.00294589996337891,0.0000486701032541291
866,-0.00294828414916992,0.0000538108144964333
867,-0.00299072265625,0.0000499109806370908
868,-0.00291204452514648,0.0000490053135897672
869,-0.00295352935791016,0.0000379460227581644
870,-0.00293159484863281,0.0000421677481659258
871,-0.00299787521362305,0.0000547231668713086
872,-0.00296306610107422,0.0000530104824992464
873,-0.00301218032836914,0.0000436403701349165
874,-0.00296401977539062,0.0000420948915683123
875,-0.00290298461914062,0.0000586131602040831
876,-0.00296783447265625,0.0000540385058427547
877,-0.00300836563110352,0.0000427388163344893
878,-0.00293350219726562,0.0000446269652027479
879,-0.00295257568359375,0.0000473919525450075
880,-0.00300073623657227,0.0000591787380400629
881,-0.0030364990234375,0.0000594260400846848
882,-0.00290727615356445,0.0000443125158519323
883,-0.00290060043334961,0.000046868508387371
884,-0.00299882888793945,0.0000456084210403343
885,-0.00301885604858398,0.0000453095675942393
886,-0.00298547744750977,0.0000505211163147451
887,-0.00298738479614258,0.0000515006206180596
888,-0.00297451019287109,0.0000451826797010432
889,-0.0029149055480957,0.0000540931772895525
890,-0.00314712524414062,0.0000516262939164295
891,-0.00317811965942383,0.0000631786741899981
892,-0.00305080413818359,0.0000689784135242691
893,-0.00305938720703125,0.0000631120594372782
894,-0.00310659408569336,0.0000427208573107325
895,-0.00305032730102539,0.0000488391599255887
896,-0.00302457809448242,0.000059216187167746
897,-0.00296258926391602,0.0000532138304763904
898,-0.00310564041137695,0.0000617241711627365
899,-0.0030970573425293,0.0000612304216413986
900,-0.00316476821899414,0.0000539595552324916
901,-0.00309276580810547,0.0000663095176857834
902,-0.00314950942993164,0.0000611523903049982
903,-0.00306129455566406,0.0000573127717205393
904,-0.00315380096435547,0.0000654727111331985
905,-0.0032501220703125,0.0000637536808523494
906,-0.00320959091186523,0.000076491874014046
907,-0.0032496452331543,0.000063363746424723
908,-0.0032501220703125,0.0000574217672528461
909,-0.00323009490966797,0.0000431419061210726
910,-0.00321674346923828,0.0000474590731993436
911,-0.00330686569213867,0.0000584869494862376
912,-0.00326204299926758,0.0000587758618639212
913,-0.00324487686157227,0.0000702554463833352
914,-0.00332212448120117,0.0000510093192949546
915,-0.00344944000244141,0.0000606792848778723
916,-0.00330877304077148,0.0000450730938596995
917,-0.00335788726806641,0.0000679438572096399
918,-0.00343132019042969,0.0000659640055405759
919,-0.00342035293579102,0.0000662203043227542
920,-0.00352573394775391,0.0000401301744295431
921,-0.00361919403076172,0.0000712149551060821
922,-0.0035858154296875,0.0000684107620308972
923,-0.00363445281982422,0.0000442290562489846
924,-0.00355768203735352,0.0000464824520749423
925,-0.00368738174438477,0.00005196650020195
926,-0.00383615493774414,0.0000671934451660001
927,-0.00379419326782227,0.0000578753427617666
928,-0.00374746322631836,0.0000543803459240071
929,-0.00386857986450195,0.0000715652991285497
930,-0.00393009185791016,0.0000504490558491814
931,-0.00383329391479492,0.0000625202435579437
932,-0.00404119491577148,0.0000733771669833044
933,-0.0041356086730957,0.0000759728948449804
934,-0.00426054000854492,0.0000708853359561763
935,-0.00418615341186523,0.0000488019012276175
936,-0.00436496734619141,0.0000677125554481056
937,-0.00450325012207031,0.0000838298168131362
938,-0.00447750091552734,0.0000769778237918303
939,-0.00445699691772461,0.0000654935446226311
940,-0.00456619262695313,0.0000707488804943747
941,-0.00466775894165039,0.0000622943538275311
942,-0.00485467910766602,0.0000508430065605301
943,-0.00494289398193359,0.0000755090874359801
944,-0.00492382049560547,0.0000706765327093256
945,-0.00497102737426758,0.0000720544967720319
946,-0.00494956970214844,0.0000913289434405081
947,-0.00517177581787109,0.0000626292525507945
948,-0.00514936447143555,0.000077686417521274
949,-0.00548887252807617,0.0000942329640877331
950,-0.00557756423950195,0.0000993859507606829
951,-0.00568008422851563,0.0000844984506146022
952,-0.00577640533447266,0.0000942040049708575
953,-0.00618696212768555,0.000106749772205209
954,-0.00617361068725586,0.0000962148212179171
955,-0.00650119781494141,0.0000968719068300664
956,-0.0063939094543457,0.000118626121799466
957,-0.006500244140625,0.0000974265952143108
958,-0.00648355484008789,0.0000906542559685985
959,-0.00687694549560547,0.000111968431785879
960,-0.00698184967041016,0.000104188646276889
961,-0.0067439079284668,0.0000792167032169211
962,-0.00678539276123047,0.0000905840007915049
963,-0.00689220428466797,0.000104419716683224
964,-0.00684165954589844,0.000124237814628994
965,-0.00693368911743164,0.000118465007473545
966,-0.00698614120483398,0.000133374686023911
967,-0.00673437118530273,0.000162147071632058
968,-0.00668811798095703,0.00016226481940435
969,-0.00647926330566406,0.000136558703000402
970,-0.00672101974487305,0.000181734395754304
971,-0.00648641586303711,0.000100423762131326
972,-0.00642204284667969,0.00012673825755474
973,-0.00611305236816406,0.000130081316592681
974,-0.00624752044677734,0.000140154438277536
975,-0.00618934631347656,0.000146279464890366
976,-0.00636768341064453,0.000166835775099523
977,-0.00595951080322266,0.000172691433693552
978,-0.00604057312011719,0.000147591692185446
979,-0.00591421127319336,0.00016592836891885
980,-0.00572061538696289,0.00014796711106114
981,-0.00582265853881836,0.000160095191029159
982,-0.0057520866394043,0.000172543906203131
983,-0.00541496276855469,0.000127478826992088
984,-0.00555324554443359,0.000141985420235666
985,-0.00513744354248047,0.000210193800152919
986,-0.00526905059814453,0.000147881033618683
987,-0.00519514083862305,0.000180559538877768
988,-0.00506067276000977,0.000193471351745334
989,-0.00520181655883789,0.000182284062480986
990,-0.00487756729125977,0.000126673655601233
991,-0.00471353530883789,0.000148053138458559
992,-0.00488138198852539,0.000178339647081066
993,-0.00433444976806641,0.00019099218177378
994,-0.00419282913208008,0.000149739015900359
995,-0.00408935546875,0.000130214091883915
996,-0.00411272048950195,0.000264028312689172
997,-0.00401592254638672,0.000306312114376337
998,-0.00400638580322266,0.000217349887967511
999,-0.00382375717163086,0.000183670840032275
1000,-0.00406694412231445,0.00016585983915501
1001,-0.00409364700317383,0.000178818384750933
1002,-0.00421237945556641,0.000140824472206214
1003,-0.00390911102294922,0.000177803362829917
1004,-0.00388908386230469,0.000257315398468629
1005,-0.00337600708007812,0.000284853434793006
1006,-0.0037384033203125,0.000249804424456502
1007,-0.004119873046875,0.000294177225262422
1008,-0.00377559661865234,0.000199753226647736
1009,-0.00338506698608398,0.00026644233605339
1010,-0.00312519073486328,0.000315468775391164
1011,-0.00391721725463867,0.000217613350077409
1012,-0.00378990173339844,0.000149365006057275
1013,-0.00368547439575195,0.000242274573703105
1014,-0.00337028503417969,0.000284783183398345
1015,-0.00324726104736328,0.000264681993887316
1016,-0.00329303741455078,0.000310306337457203
1017,-0.00396108627319336,0.000362466504161847
1018,-0.00343179702758789,0.000344713361760226
1019,-0.00369882583618164,0.000318675663331804
1020,-0.00327634811401367,0.000229314553980133
1021,-0.0033259391784668,0.000311826710780118
1022,-0.00373601913452148,0.000298358347345482
1023,-0.00363779067993164,0.000260560857570637
1024,-0.00390291213989258,0.000227886259943934
1025,-0.00341081619262695,0.000218863580691207
1026,-0.00344419479370117,0.000309660855448866
1027,-0.00371646881103516,0.00033229494843113
1028,-0.0036163330078125,0.000371742199603685
1029,-0.00359916687011719,0.00041211091059358
1030,-0.00358247756958008,0.000263807760650942
1031,-0.00310087203979492,0.000263993863579167
1032,-0.00362825393676758,0.000362245628782182
1033,-0.00330018997192383,0.000315393808630272
1034,-0.00388288497924805,0.000314712524414062
1035,-0.00372028350830078,0.000327636751083964
1036,-0.00339698791503906,0.000300732693840061
1037,-0.00361394882202148,0.000230903439574495
1038,-0.0039362907409668,0.000418140241388972
1039,-0.00429344177246094,0.000411625102443339
1040,-0.00436115264892578,0.000517970714486253
1041,-0.00448369979858398,0.000457175194455072
1042,-0.00347042083740234,0.000347483117010559
1043,-0.00436925888061523,0.000375713792231231
1044,-0.00473546981811523,0.000465330526183377
1045,-0.00507354736328125,0.00053615159555965
1046,-0.00429344177246094,0.000517563189884846
1047,-0.00503873825073242,0.000636608858805795
1048,-0.00393295288085937,0.000483263579736834
1049,-0.00469255447387695,0.00037973965286167
1050,-0.00629854202270508,0.000457549044838802
1051,-0.00428438186645508,0.000637670892566263
1052,-0.00493240356445313,0.000506981734068047
1053,-0.00476741790771484,0.000403691588520841
1054,-0.00562238693237305,0.000582937667690829
1055,-0.00538253784179688,0.000696910842692214
1056,-0.00486040115356445,0.000648846252568266
1057,-0.00434350967407227,0.000615231555599231
1058,-0.00455856323242188,0.000671776744954835
1059,-0.00357818603515625,0.0010202300683937
1060,-0.00612163543701172,0.000718399767183466
1061,-0.00516843795776367,0.000808553859399366
1062,-0.00396585464477539,0.000949637452153373
1063,-0.0045161247253418,0.000724692086745647
1064,-0.00403833389282227,0.0010294877803609
1065,-0.00590705871582031,0.000668617519760482
1066,-0.00541496276855469,0.000749740876197473
1067,-0.00439119338989258,0.00108868011441379
1068,-0.00411510467529297,0.000629367247730723
1069,-0.00523185729980469,0.000750516845020566
1070,-0.00548934936523438,0.000746200029682544
1071,-0.00614213943481445,0.00106705203955962
1072,-0.00413799285888672,0.000731666493302215
1073,-0.00283098220825195,0.001122013943869
1074,-0.00459003448486328,0.00134207967695899
1075,-0.00435447692871094,0.00139874082610878
1076,-0.00540971755981445,0.00111665774169541
1077,-0.00396251678466797,0.00168224256820797
1078,-0.00393867492675781,0.00112938234163494
1079,-0.00384187698364258,0.000752008330808105
1080,-0.00403547286987305,0.000829027717411045
1081,-0.00423574447631836,0.00123280250910299
1082,-0.00351858139038086,0.00153310969851665
1083,-0.0057673454284668,0.00105434809627817
1084,-0.000884532928466797,0.00130107463071319
1085,-0.00574827194213867,0.00120730196592822
1086,-0.00635814666748047,0.0011299233754888
1087,-0.00631141662597656,0.00138233175919072
1088,-0.00406646728515625,0.00109847385528113
1089,-0.00107383728027344,0.00120096945413895
1090,-0.00409746170043945,0.00154611520217424
1091,-0.00549840927124023,0.00159598472473058
1092,-0.00240468978881836,0.00189577789190642
1093,-0.00479650497436523,0.00191456763744839
1094,-0.00627517700195313,0.00233519303378057
1095,-0.00609970092773438,0.00211338359916324
1096,-0.00641012191772461,0.00175253685717591
1097,-0.00865745544433594,0.00195202200262123
1098,-0.0043034553527832,0.00239271241414529
1099,-0.00101280212402344,0.0021916954645258
1100,-0.00416040420532227,0.0021348131109961
