Wavelength (nm),Absorbance (AU),Std.Dev.
190,0.194462299346924,0.0000599061967275361
191,0.189116477966309,0.000050914509461727
192,0.18317699432373,0.000061659672615789
193,0.176285743713379,0.0000421765094552658
194,0.169290065765381,0.0000346002781004355
195,0.162106513977051,0.0000420712535644927
196,0.155356884002686,0.000042705552926173
197,0.149105548858643,0.0000410682490620069
198,0.14304256439209,0.0000305380603482018
199,0.137304306030273,0.0000278587799340898
200,0.131833076477051,0.0000296028134958089
201,0.126790523529053,0.0000315497243676012
202,0.122323036193848,0.000026013859796999
203,0.118419647216797,0.0000356306176881244
204,0.114917278289795,0.000034070507136768
205,0.111778259277344,0.0000287934239729297
206,0.108824729919434,0.0000424813472243164
207,0.105992317199707,0.0000470428313676906
208,0.103302478790283,0.0000381879288633729
209,0.100908756256104,0.000040442004041368
210,0.0985469818115234,0.0000533162797876154
211,0.0961880683898926,0.0000351770434400182
212,0.0939788818359375,0.0000400564499698117
213,0.0917873382568359,0.0000475547955095844
214,0.0897836685180664,0.0000431754916372858
215,0.0878243446350098,0.0000316585401014287
216,0.0859580039978027,0.0000385641591073281
217,0.0841565132141113,0.0000312482999408121
218,0.0825228691101074,0.0000309659754046755
219,0.0808382034301758,0.000029652217504581
220,0.0791463851928711,0.0000308390538272525
221,0.0775585174560547,0.0000298694807576197
222,0.0759615898132324,0.0000339995259665983
223,0.0744829177856445,0.0000236851789255921
224,0.0729537010192871,0.0000281576278523343
225,0.0714812278747559,0.0000355667463134938
226,0.070155143737793,0.0000385523653353922
227,0.0687832832336426,0.000036215303441714
228,0.0675163269042969,0.0000392160515258632
229,0.0663895606994629,0.0000334219991028924
230,0.0651402473449707,0.0000323222090093296
231,0.0640525817871094,0.0000398137611681249
232,0.0630197525024414,0.0000360343477398639
233,0.0619187355041504,0.0000304789037324631
234,0.0609369277954102,0.000026750734570077
235,0.0600008964538574,0.0000265513103388842
236,0.0590343475341797,0.0000225630152975483
237,0.0583257675170898,0.0000278725493195485
238,0.0576329231262207,0.0000252982223279391
239,0.0568771362304688,0.0000285575301872556
240,0.0563192367553711,0.0000260007457683734
241,0.0558052062988281,0.0000331547588428917
242,0.0551700592041016,0.000043680730276426
243,0.0546555519104004,0.0000279346819226776
244,0.0542831420898438,0.0000292084654162528
245,0.053861141204834,0.0000255119020450505
246,0.0534582138061523,0.0000282744733436081
247,0.053131103515625,0.0000270565698084387
248,0.0527939796447754,0.0000273397610872918
249,0.0523824691772461,0.0000291982464554705
250,0.0521144866943359,0.0000262893649261281
251,0.0517702102661133,0.0000302599109833345
252,0.0514430999755859,0.0000205693893306464
253,0.0511775016784668,0.0000211316749860439
254,0.0508718490600586,0.0000320511195694085
255,0.0505490303039551,0.0000255013163087138
256,0.0502867698669434,0.0000328213289010542
257,0.0499229431152344,0.0000252858611747033
258,0.0496335029602051,0.000028983306297333
259,0.0493350028991699,0.0000270875405058361
260,0.0489935874938965,0.0000407946659992195
261,0.0486717224121094,0.0000289322689422081
262,0.0482420921325684,0.0000317947064937013
263,0.0478439331054688,0.0000362678468128327
264,0.0474786758422852,0.0000344133083057423
265,0.0470113754272461,0.0000324012515644113
266,0.0466160774230957,0.0000331221675621266
267,0.0462002754211426,0.0000513115335455383
268,0.0458025932312012,0.0000526791771840131
269,0.0453953742980957,0.0000450730938596995
270,0.0448155403137207,0.0000474363107653193
271,0.0444726943969727,0.0000487482919587439
272,0.0439925193786621,0.0000545931693319768
273,0.0434317588806152,0.0000561575718705646
274,0.0430855751037598,0.0000488961572854717
275,0.0426263809204102,0.0000390686509013354
276,0.042083740234375,0.0000303728800855641
277,0.0416297912597656,0.0000369310302069442
278,0.0411491394042969,0.0000387802312112808
279,0.0406498908996582,0.0000277801129616811
280,0.0400152206420898,0.0000235081202601309
281,0.0395421981811523,0.0000184077054471565
282,0.039095401763916,0.0000255525327657489
283,0.0385494232177734,0.0000359221721442232
284,0.0379738807678223,0.0000346921562826511
285,0.0375146865844727,0.000027866430432646
286,0.0370030403137207,0.0000224974176637372
287,0.0364222526550293,0.0000294178964313625
288,0.0359029769897461,0.0000390664683967445
289,0.0353069305419922,0.0000439867740483908
290,0.0349149703979492,0.0000330155932867313
291,0.0343461036682129,0.0000293506731240622
292,0.0339288711547852,0.0000353784572854178
293,0.0334882736206055,0.0000577386597467301
294,0.0329732894897461,0.000038631167711728
295,0.0325818061828613,0.0000364546607383313
296,0.0321598052978516,0.0000294589286252565
297,0.0317039489746094,0.0000342444116769214
298,0.0313372611999512,0.0000475177259976634
299,0.0309782028198242,0.0000442624589743567
300,0.0305404663085937,0.0000369925460823541
301,0.0301995277404785,0.0000429153442382813
302,0.029853343963623,0.000049591064453125
303,0.029456615447998,0.0000431267511543084
304,0.0292067527770996,0.0000392037288935444
305,0.0289063453674316,0.0000353559559928455
306,0.028435230255127,0.0000334305019140058
307,0.0281276702880859,0.0000393852771640951
308,0.0278544425964355,0.0000329173092813602
309,0.0275802612304687,0.0000321767933630863
310,0.0272531509399414,0.0000415293410934459
311,0.0268878936767578,0.0000416775862250751
312,0.0266194343566895,0.0000375280234717388
313,0.0262537002563477,0.0000362521701979603
314,0.0259675979614258,0.0000408350546991406
315,0.0257358551025391,0.0000383787267834833
316,0.0253214836120605,0.000030835367150153
317,0.0250778198242187,0.0000371665430425873
318,0.0248255729675293,0.0000455585403221344
319,0.0245223045349121,0.0000621152469092429
320,0.0242156982421875,0.0000450466021636829
321,0.023857593536377,0.0000524000429833075
322,0.0236101150512695,0.0000485438026146866
323,0.0232295989990234,0.0000502265958337081
324,0.0229873657226562,0.0000503971987469405
325,0.0226430892944336,0.0000396348927542045
326,0.0224223136901855,0.0000456657165095173
327,0.0220379829406738,0.0000428357976560129
328,0.0216941833496094,0.0000433436845843741
329,0.0213408470153809,0.0000507131505917193
330,0.0211868286132812,0.0000600445724829948
331,0.0208139419555664,0.0000406613782474901
332,0.0205273628234863,0.0000375961228505394
333,0.0202679634094238,0.0000402221399753601
334,0.0199346542358398,0.0000398637005014932
335,0.0195655822753906,0.0000361335922351196
336,0.0192856788635254,0.0000559689836121884
337,0.0190238952636719,0.0000464848978118136
338,0.0186820030212402,0.0000569745581594566
339,0.0184831619262695,0.0000543667554110441
340,0.018190860748291,0.0000476729857769872
341,0.0178852081298828,0.0000436442775862504
342,0.0176429748535156,0.0000384046375999226
343,0.0173497200012207,0.0000387736346249697
344,0.0171265602111816,0.0000389936483431309
345,0.0168576240539551,0.0000407472627486233
346,0.0166492462158203,0.0000422169226135891
347,0.0163812637329102,0.000062652846167209
348,0.0161190032958984,0.0000543050326443021
349,0.0158758163452148,0.0000367999675399298
350,0.0156540870666504,0.0000367389028258859
351,0.0153684616088867,0.0000482478153825415
352,0.0151457786560059,0.0000669714351182144
353,0.0148725509643555,0.000046674052581939
354,0.0147228240966797,0.0000399882759815098
355,0.0145430564880371,0.0000440835888286481
356,0.0143532752990723,0.0000493463106742469
357,0.0141458511352539,0.0000448379084957032
358,0.0139555931091309,0.0000522903636824472
359,0.013671875,0.0000515899462870505
360,0.0134572982788086,0.0000419481212243787
361,0.0132546424865723,0.000050176774589275
362,0.0130167007446289,0.0000512583310944111
363,0.0128097534179687,0.0000734019523807291
364,0.0127415657043457,0.0000645546646147554
365,0.0123763084411621,0.0000405598987332395
366,0.0123386383056641,0.0000545608820102875
367,0.0121102333068848,0.0000508743014455266
368,0.0119504928588867,0.0000515921499026373
369,0.011777400970459,0.0000457527675990001
370,0.01165771484375,0.0000494728605329091
371,0.0115442276000977,0.0000833197039038951
372,0.0112581253051758,0.0000605179434316952
373,0.0111923217773437,0.0000493036708994735
374,0.01104736328125,0.000033345376236238
375,0.0107030868530273,0.0000348254387598232
376,0.0106849670410156,0.0000499826795893589
377,0.0106034278869629,0.0000556123793177278
378,0.0103812217712402,0.0000740342476171302
379,0.0102534294128418,0.0000694645531206836
380,0.0100932121276855,0.000088678892296192
381,0.009918212890625,0.0000749226354271025
382,0.00993680953979492,0.0000672205106502722
383,0.00969600677490234,0.000077520876168711
384,0.00944948196411133,0.0000741063855749313
385,0.00933837890625,0.0000887916371192616
386,0.00924444198608398,0.0000822803207718725
387,0.00909233093261719,0.0000889272535948098
388,0.00893354415893555,0.0000881413849593048
389,0.00879907608032227,0.0000789478764201411
390,0.00882244110107422,0.0000625511487266792
391,0.0085148811340332,0.00004992692263583
392,0.00850391387939453,0.0000604643806505262
393,0.00842475891113281,0.0000782216441030063
394,0.00821065902709961,0.0000697829635868791
395,0.00805854797363281,0.0000667486866560694
396,0.00786399841308594,0.0000648428408253081
397,0.00781869888305664,0.0000840789803887127
398,0.00769186019897461,0.0000634300968544743
399,0.00748586654663086,0.0000442431912489457
400,0.00753593444824219,0.0000558917429224977
401,0.00734615325927734,0.0000857816662135291
402,0.00749349594116211,0.0000737480733077286
403,0.00719785690307617,0.0000606146122769682
404,0.00703525543212891,0.0000825382945282377
405,0.00703144073486328,0.0000541761302554821
406,0.00667524337768555,0.0000785450821872459
407,0.00687313079833984,0.0000663112321510969
408,0.00670814514160156,0.0000666157040315987
409,0.00654935836791992,0.0000741554606255977
410,0.00644922256469727,0.0000526975178260411
411,0.0064697265625,0.000036157967777498
412,0.00639915466308594,0.0000413537695552341
413,0.00626087188720703,0.00006077289113628
414,0.00606679916381836,0.000059649450627591
415,0.00593709945678711,0.0000799538046942512
416,0.00582551956176758,0.0000659312515209875
417,0.00584650039672852,0.0000736231013262224
418,0.00571298599243164,0.000049091074402816
419,0.00564002990722656,0.0000410024506124604
420,0.00560283660888672,0.0000498391785383707
421,0.00562047958374023,0.0000544242305411752
422,0.00538110733032227,0.0000469363775910485
423,0.00527238845825195,0.0000574623399696411
424,0.00514602661132813,0.0000741523943864504
425,0.00523519515991211,0.0000476920597405519
426,0.00509786605834961,0.0000385811063383247
427,0.00527620315551758,0.0000453183486398279
428,0.00481843948364258,0.0000540942281220157
429,0.00497293472290039,0.0000385346679095706
430,0.00478982925415039,0.0000375938548586903
431,0.00465822219848633,0.0000500326941088751
432,0.00475168228149414,0.0000667554991368644
433,0.00465154647827148,0.0000583205179242718
434,0.00427818298339844,0.0000457241833792635
435,0.00427818298339844,0.00004968839959991
436,0.00437641143798828,0.0000430165527928016
437,0.00430440902709961,0.000052781587304364
438,0.00434970855712891,0.0000668933025999076
439,0.00413370132446289,0.0000545921281035294
440,0.00421810150146484,0.0000322165172695544
441,0.00416755676269531,0.0000369056250363521
442,0.00396060943603516,0.0000523001464202738
443,0.00406074523925781,0.0000463035643616337
444,0.00393486022949219,0.0000449885182236305
445,0.00384664535522461,0.0000381141760032512
446,0.0037379264831543,0.000031276483101136
447,0.00360298156738281,0.0000497512796908283
448,0.00359869003295898,0.0000612285649081212
449,0.00369167327880859,0.0000513115335455383
450,0.00356960296630859,0.0000536129118600698
451,0.00356960296630859,0.0000419569283754228
452,0.00341033935546875,0.0000507523662725065
453,0.00337743759155273,0.0000511784237180896
454,0.00339984893798828,0.0000460351641896566
455,0.00318813323974609,0.000051344757083139
456,0.00319814682006836,0.0000858147924326302
457,0.003173828125,0.0000552298066528272
458,0.00315189361572266,0.0000459053289282178
459,0.00301980972290039,0.0000487552878149772
460,0.00284481048583984,0.0000629099848574525
461,0.00288009643554687,0.0000707601279460079
462,0.00269460678100586,0.000061209994477647
463,0.00278997421264648,0.0000496655143741198
464,0.00269699096679687,0.0000443842936638645
465,0.00261163711547852,0.0000419372791148091
466,0.00252342224121094,0.0000577445664142956
467,0.00251960754394531,0.0000751952695381983
468,0.00251674652099609,0.0000607560526530744
469,0.00254583358764648,0.0000473283399627433
470,0.00254058837890625,0.0000514188788097709
471,0.00236845016479492,0.0000491813090448506
472,0.00233840942382812,0.0000392377879071309
473,0.00232553482055664,0.000039025705906974
474,0.00250244140625,0.0000474914010486018
475,0.00229358673095703,0.000050942413023642
476,0.0021510124206543,0.0000722152519899084
477,0.00220727920532227,0.0000559161462461415
478,0.00205278396606445,0.0000485683867951758
479,0.00200510025024414,0.0000517450712823888
480,0.00194406509399414,0.0000712245328016545
481,0.00200033187866211,0.0000552328942155111
482,0.00189590454101562,0.0000543353797151786
483,0.00191020965576172,0.0000527471134713655
484,0.00166940689086914,0.0000578802534028712
485,0.00304651260375977,0.0000503960708260168
486,0.000716686248779297,0.0000558479936335455
487,0.00171995162963867,0.0000475966134854009
488,0.00158977508544922,0.0000553028327338385
489,0.00159263610839844,0.0000717715167539772
490,0.00160074234008789,0.0000579852414465681
491,0.00159931182861328,0.0000687042757199397
492,0.00162267684936523,0.0000621975539228928
493,0.00153493881225586,0.0000549450086513553
494,0.00146055221557617,0.0000500883333206509
495,0.00150537490844727,0.0000455373244717153
496,0.00134611129760742,0.0000676352790800954
497,0.00145053863525391,0.0000626510315890849
498,0.0013885498046875,0.0000578694494423927
499,0.00125837326049805,0.0000653406114434015
500,0.00123262405395508,0.0000398323173722403
501,0.00110864639282227,0.0000449202368952008
502,0.00110960006713867,0.0000628448943228401
503,0.00116205215454102,0.0000466484700802658
504,0.00113534927368164,0.0000514564519816168
505,0.00121307373046875,0.0000434484745459197
506,0.00100898742675781,0.0000590489230462501
507,0.00102996826171875,0.0000688827544393324
508,0.00099945068359375,0.0000768773305064369
509,0.000947475433349609,0.0000817132507801884
510,0.000957489013671875,0.000064988199093051
511,0.000885486602783203,0.0000609148971631392
512,0.000817775726318359,0.000075591850338273
513,0.000784397125244141,0.0000632254425683796
514,0.000939846038818359,0.0000412539932696532
515,0.000765323638916016,0.000054160389464009
516,0.000700473785400391,0.0000692251947172528
517,0.000734329223632813,0.0000692399736187164
518,0.000645160675048828,0.0000631858715782865
519,0.000612735748291016,0.0000839003076159261
520,0.000590324401855469,0.0000772211241317698
521,0.000481605529785156,0.0000439389335121881
522,0.00049591064453125,0.0000504591955704142
523,0.00045013427734375,0.0000715271631700025
524,0.000481128692626953,0.0000480187092982497
525,0.000469684600830078,0.0000437353523441413
526,0.000359058380126953,0.0000505514860148194
527,0.000451564788818359,0.0000511795343971204
528,0.000474452972412109,0.0000620035007430562
529,0.000326156616210937,0.0000663129465720843
530,0.000381946563720703,0.0000695152697196451
531,0.000340461730957031,0.0000602694628484721
532,0.000238418579101562,0.0000435060014391944
533,0.000281333923339844,0.00006197599131327
534,0.000250816345214844,0.0000506772696988631
535,0.000147342681884766,0.0000390351724215844
536,0.000205039978027344,0.0000537018995239855
537,0.000121116638183594,0.0000508642444751794
538,0.000125408172607422,0.0000575236394773954
539,0.000139713287353516,0.000061165402440783
540,0.000141143798828125,0.0000687687798026385
541,0.000154018402099609,0.0000515017243486373
542,0.0000677108764648438,0.0000536923721858584
543,-0.0000019073486328125,0.0000512694194911692
544,-0.0000538825988769531,0.0000454673669474038
545,-0.0000414848327636719,0.0000500429181936042
546,0.0000276565551757812,0.0000680291392711355
547,0.0000977516174316406,0.0000562354582527981
548,-0.0000405311584472656,0.0000446829748793321
549,-0.000114917755126953,0.0000440319807697137
550,-0.0000896453857421875,0.0000566363322110056
551,-0.000110626220703125,0.000042831816448917
552,-0.000104427337646484,0.0000387860939016974
553,-0.0000939369201660156,0.0000339300716502035
554,-0.000107288360595703,0.0000421481971884679
555,-0.0000910758972167969,0.0000429954046936686
556,-0.000216007232666016,0.0000298604398536029
557,-0.000147819519042969,0.0000264413621108767
558,-0.000200748443603516,0.0000351212498251348
559,-0.000203609466552734,0.0000475428407605306
560,-0.000220775604248047,0.0000545671326603006
561,-0.000334262847900391,0.0000385331927571953
562,-0.000340938568115234,0.0000399121531636077
563,-0.000256061553955078,0.0000416229950873277
564,-0.000305652618408203,0.0000362443293478204
565,-0.000341892242431641,0.0000413984187941202
566,-0.000371932983398437,0.0000529933228378761
567,-0.00041961669921875,0.0000445874615922223
568,-0.000416278839111328,0.0000448885899954312
569,-0.000393390655517578,0.0000448835244207386
570,-0.000451564788818359,0.00003457809237535
571,-0.000478744506835938,0.0000367706072974486
572,-0.000574111938476563,0.0000337612830768755
573,-0.000382900238037109,0.0000321069369613601
574,-0.000516891479492188,0.0000404567596660695
575,-0.000395298004150391,0.0000326137095977051
576,-0.000315666198730469,0.0000372238522744632
577,-0.000441551208496094,0.00002873018073869
578,-0.000502109527587891,0.0000261527902420119
579,-0.00043487548828125,0.0000333069987012869
580,-0.000409603118896484,0.0000330061224997331
581,-0.0003204345703125,0.000031914266075659
582,-0.000615596771240234,0.0000295773598596602
583,-0.000640392303466797,0.0000355195675876781
584,-0.000339508056640625,0.0000303340212106692
585,-0.000474929809570313,0.0000341962397465649
586,-0.00066375732421875,0.0000326154524813187
587,-0.000474929809570313,0.0000264601661013035
588,-0.000689506530761719,0.0000342643250794632
589,-0.000642299652099609,0.0000343918283848895
590,-0.000617504119873047,0.0000315326034877118
591,-0.000714302062988281,0.0000262926080576978
592,-0.000467777252197266,0.0000316926365465305
593,-0.000664234161376953,0.0000304653794192568
594,-0.000630378723144531,0.0000313717540815943
595,-0.000678539276123047,0.0000237965152636131
596,-0.000767707824707031,0.0000449278288341123
597,-0.000640869140625,0.0000355915100735148
598,-0.000673294067382813,0.0000365473207826684
599,-0.000586509704589844,0.000037256669807728
600,-0.000524520874023438,0.0000281217720796715
601,-0.000642776489257813,0.00003031902617347
602,-0.000699043273925781,0.0000261734304668117
603,-0.000737667083740234,0.000026644809623303
604,-0.000784873962402344,0.0000248693550160639
605,-0.000626564025878906,0.0000339309092953137
606,-0.000763893127441406,0.0000250968823300262
607,-0.000641345977783203,0.0000300090296961156
608,-0.000764369964599609,0.0000253845818599819
609,-0.000829696655273438,0.0000174949532396066
610,-0.000700950622558594,0.0000159606948979269
611,-0.000787258148193359,0.0000213424582976369
612,-0.00072479248046875,0.0000302538052234216
613,-0.000729084014892578,0.0000324669733630165
614,-0.000919818878173828,0.0000283327153861456
615,-0.000895977020263672,0.0000290919518667719
616,-0.000988483428955078,0.0000318804066666542
617,-0.000879287719726563,0.0000393166622756919
618,-0.000769615173339844,0.0000463673569243868
619,-0.000710964202880859,0.0000331255997332733
620,-0.000664234161376953,0.0000338352841846596
621,-0.000789165496826172,0.0000375325672744158
622,-0.000802516937255859,0.0000324582181452743
623,-0.000918865203857422,0.0000314929193991821
624,-0.000913619995117188,0.0000341812760333058
625,-0.000893592834472656,0.0000316540509928739
