Wavelength (nm),Absorbance (AU),Std.Dev.
190,0.0915427207946777,0.0000579519013763505
191,0.0878152847290039,0.0000344850861386044
192,0.0840268135070801,0.0000452053194662536
193,0.0801558494567871,0.0000446002085153771
194,0.0763297080993652,0.0000370861613375678
195,0.0725350379943848,0.0000382013231762137
196,0.0689373016357422,0.0000319107036192014
197,0.0654444694519043,0.0000312701213819777
198,0.0618948936462402,0.0000318634634695115
199,0.0583419799804688,0.00002994835361911
200,0.0546636581420898,0.000032189157165027
201,0.0512681007385254,0.0000280625858555058
202,0.0483822822570801,0.0000273402808694356
203,0.0459370613098145,0.000035672869495415
204,0.0439519882202148,0.0000322949384464208
205,0.0422921180725098,0.0000307106822740643
206,0.040677547454834,0.0000386855726565777
207,0.0392045974731445,0.000037651268543964
208,0.0378928184509277,0.0000410218548088133
209,0.0366916656494141,0.0000337301204933969
210,0.0354585647583008,0.0000495096142998081
211,0.0342388153076172,0.0000372909828110068
212,0.0331645011901855,0.0000309246451703853
213,0.0320444107055664,0.0000347617231756865
214,0.0310611724853516,0.0000258763802041725
215,0.0300188064575195,0.0000240926663467774
216,0.0290460586547852,0.000036444523938469
217,0.0280900001525879,0.0000334322022167261
218,0.0273222923278809,0.0000398865090861095
219,0.0264110565185547,0.0000327701978803666
220,0.0256543159484863,0.0000256430237956023
221,0.0248775482177734,0.0000229588550040343
222,0.0240874290466309,0.000031441435994692
223,0.0234193801879883,0.0000304933541238923
224,0.0227103233337402,0.0000294430052701275
225,0.0220208168029785,0.0000262466263198555
226,0.0214071273803711,0.0000315289979072886
227,0.0207014083862305,0.0000380238393475021
228,0.0200376510620117,0.0000387244913842258
229,0.0194206237792969,0.0000303733479616832
230,0.0187664031982422,0.0000291441724248197
231,0.0182390213012695,0.0000338529196326218
232,0.0177111625671387,0.0000287232550618095
233,0.0171160697937012,0.0000339275585907881
234,0.0165486335754395,0.0000270975065851913
235,0.0160665512084961,0.0000250044148911753
236,0.0156302452087402,0.0000202079964641734
237,0.0153021812438965,0.0000259027275498845
238,0.0150308609008789,0.000029081203307482
239,0.0147042274475098,0.0000261669142599555
240,0.0145382881164551,0.0000195375988418496
241,0.014369010925293,0.0000295432272255127
242,0.0141634941101074,0.0000333487854353305
243,0.0140023231506348,0.0000236040413904952
244,0.0138421058654785,0.0000285440912316611
245,0.013679027557373,0.0000346921562826511
246,0.0135846138000488,0.0000386370530206762
247,0.0134496688842773,0.000032251786333999
248,0.0133228302001953,0.0000231701892402911
249,0.0132012367248535,0.0000258070904420211
250,0.013056755065918,0.0000265486340922577
251,0.0128874778747559,0.0000207372774137959
252,0.0128293037414551,0.0000201608250467139
253,0.0127325057983398,0.0000231272166455623
254,0.0126128196716309,0.0000263439044348328
255,0.0124826431274414,0.0000212751012579
256,0.0124106407165527,0.0000297182805498631
257,0.0123229026794434,0.0000241215512656054
258,0.0121769905090332,0.0000331684719067985
259,0.012143611907959,0.0000289504367737895
260,0.0120744705200195,0.000036407851961015
261,0.0118770599365234,0.0000289975218509876
262,0.0118074417114258,0.0000423077110762091
263,0.0117220878601074,0.0000418972745872642
264,0.0116448402404785,0.0000285102169055257
265,0.0114917755126953,0.0000279066884474403
266,0.0114312171936035,0.0000332634506346775
267,0.0113019943237305,0.0000345147436476928
268,0.0112109184265137,0.0000348246226310543
269,0.0110812187194824,0.0000513281480024434
270,0.0108661651611328,0.0000456470411063168
271,0.0108089447021484,0.0000460795949214685
272,0.0106954574584961,0.0000479582986973685
273,0.0106158256530762,0.000041090389027394
274,0.0105209350585937,0.0000446218699278323
275,0.0103702545166016,0.0000364070713048485
276,0.0101981163024902,0.0000334593953092941
277,0.0101547241210937,0.0000397623295619675
278,0.010042667388916,0.0000438677227824034
279,0.00989866256713867,0.0000355978979247932
280,0.00971460342407227,0.0000317123598378521
281,0.00966453552246094,0.0000279351906353009
282,0.00956392288208008,0.0000300842303391957
283,0.00946187973022461,0.0000381603813447426
284,0.00931262969970703,0.0000318804066666542
285,0.00924491882324219,0.0000244184160448717
286,0.00915288925170898,0.0000350093958456404
287,0.00895786285400391,0.0000383602083421055
288,0.00886392593383789,0.0000245646354118458
289,0.00871992111206055,0.0000263649340514895
290,0.00860357284545898,0.0000332711397294318
291,0.00848531723022461,0.0000356688856139718
292,0.00835943222045898,0.0000339585399926029
293,0.00829935073852539,0.0000561130168279863
294,0.00821447372436523,0.0000412036696316694
295,0.00811862945556641,0.0000379168003637907
296,0.00801277160644531,0.0000379557585566185
297,0.00790834426879883,0.0000355435645958795
298,0.00780344009399414,0.0000443881356282659
299,0.00769805908203125,0.0000428610033800376
300,0.00763082504272461,0.0000334475010516415
301,0.00754022598266602,0.0000333359991410007
302,0.00744295120239258,0.0000429444744003237
303,0.00729799270629883,0.0000314558959832666
304,0.00731563568115234,0.0000388505251059884
305,0.0072169303894043,0.0000336617989948747
306,0.00708627700805664,0.000041254682208344
307,0.006988525390625,0.0000386149784870679
308,0.00697231292724609,0.000029608093583873
309,0.00691652297973633,0.000034066335867866
310,0.00687694549560547,0.0000370876940452468
311,0.0066828727722168,0.000036400044645942
312,0.00657272338867188,0.0000328386433825819
313,0.00651645660400391,0.0000348874086834723
314,0.0065159797668457,0.0000397065368110009
315,0.00644588470458984,0.0000270129407491334
316,0.00638151168823242,0.0000290802259687273
317,0.00624608993530273,0.0000300279658265352
318,0.00620841979980469,0.0000334627928920922
319,0.00610876083374023,0.0000410384796746666
320,0.00604772567749023,0.0000366397464952434
321,0.00602531433105469,0.0000556042016279082
322,0.00593376159667969,0.0000455036083780593
323,0.00586891174316406,0.0000438482816031366
324,0.00583028793334961,0.0000456545121843187
325,0.00571060180664063,0.0000325945317270935
326,0.00566530227661133,0.0000447147673035437
327,0.00558042526245117,0.0000388205193272545
328,0.00559282302856445,0.0000441055039678108
329,0.00539302825927734,0.0000544022926576337
330,0.00541973114013672,0.0000553757625127199
331,0.00528717041015625,0.0000442316265849594
332,0.00524759292602539,0.0000449847275355177
333,0.00524616241455078,0.0000404687007550124
334,0.00518035888671875,0.0000345287397277484
335,0.00513839721679688,0.000047134575236824
336,0.00503253936767578,0.0000630688122466557
337,0.00490999221801758,0.0000533834052975993
338,0.00491714477539063,0.0000541446440964138
339,0.00488662719726563,0.0000534153401776999
340,0.0047907829284668,0.0000462298481754879
341,0.00476884841918945,0.0000411194296411652
342,0.00471210479736328,0.000032083912980657
343,0.00461101531982422,0.000031680078967806
344,0.00463581085205078,0.0000360958169835312
345,0.00456142425537109,0.0000388073387299135
346,0.00447702407836914,0.0000400408370163398
347,0.00446081161499023,0.0000634408498447227
348,0.00435590744018555,0.0000487447936541101
349,0.00427389144897461,0.0000345213307451616
350,0.00436210632324219,0.0000373298327530771
351,0.00418996810913086,0.0000546223156701187
352,0.00413417816162109,0.000069957065334676
353,0.00406932830810547,0.00004752251078531
354,0.00407028198242188,0.0000377417439082111
355,0.00399971008300781,0.0000429861491286238
356,0.00395441055297852,0.0000345394387857096
357,0.00397109985351562,0.0000314649301016019
358,0.00399923324584961,0.0000392160515258632
359,0.00392866134643555,0.000046250746356896
360,0.00381040573120117,0.0000405101160515682
361,0.00377511978149414,0.0000408392305607607
362,0.00375223159790039,0.0000450036777831611
363,0.00370979309082031,0.000068872851088776
364,0.00367164611816406,0.0000678517662288504
365,0.00357151031494141,0.0000467166589531172
366,0.00359010696411133,0.0000501665777848501
367,0.00353574752807617,0.0000535704848270646
368,0.00346899032592773,0.0000599498290313946
369,0.00356674194335937,0.0000492633020091359
370,0.00354194641113281,0.0000556501855017083
371,0.00352048873901367,0.0000869100310563986
372,0.00336933135986328,0.0000726234106578671
373,0.00333118438720703,0.000056465452835364
374,0.00325298309326172,0.0000473511543000349
375,0.00312232971191406,0.0000524401651184297
376,0.00311374664306641,0.0000701501850148513
377,0.00312423706054687,0.000068054201891604
378,0.00306272506713867,0.0000585976412469476
379,0.00308895111083984,0.0000781343918236444
380,0.00299215316772461,0.0000884452595108916
381,0.00300788879394531,0.0000799921869579988
382,0.00309181213378906,0.0000647410714548388
383,0.00301170349121094,0.0000807348818908601
384,0.00294303894042969,0.0000745377472121031
385,0.00297689437866211,0.0000875148837834447
386,0.00293588638305664,0.0000675343509313282
387,0.00292158126831055,0.0000938751772985212
388,0.00293779373168945,0.0000923932750303869
389,0.00284051895141602,0.0000696720933877945
390,0.00279617309570312,0.000063878384290026
391,0.00266933441162109,0.0000542997986765155
392,0.00274991989135742,0.0000690327810798225
393,0.00270366668701172,0.0000631534768714259
394,0.00271749496459961,0.00005691965830353
395,0.00273704528808594,0.0000703750907530817
396,0.00261878967285156,0.0000789896260773384
397,0.00251245498657227,0.0000807517779249253
398,0.00243377685546875,0.0000729108807508369
399,0.00247335433959961,0.0000537780574658493
400,0.002532958984375,0.0000506727828008332
401,0.00249671936035156,0.0000765438754494519
402,0.00254297256469727,0.0000500792535900731
403,0.00239944458007812,0.000064633865263641
404,0.00234603881835937,0.0000990330051880098
405,0.00226259231567383,0.0000731879023206135
406,0.00239181518554687,0.0000720039898023476
407,0.00230121612548828,0.000070955868646219
408,0.00236082077026367,0.0000731910089658733
409,0.00227546691894531,0.0000762492287245153
410,0.00222635269165039,0.0000678819188483394
411,0.00227928161621094,0.0000663129465720843
412,0.00218963623046875,0.0000566995273092453
413,0.00208520889282227,0.0000621902421549344
414,0.00207853317260742,0.0000653997416566965
415,0.00208663940429687,0.0000825134979107791
416,0.00200366973876953,0.0000538266575159129
417,0.00202655792236328,0.0000568757002640923
418,0.00196170806884766,0.0000558245787769593
419,0.00202178955078125,0.0000549481122169878
420,0.00195503234863281,0.0000475822800339158
421,0.00199604034423828,0.0000530608569114354
422,0.00182199478149414,0.0000489135921789783
423,0.00182914733886719,0.0000555551102101907
424,0.00184059143066406,0.0000804739524565194
425,0.00188779830932617,0.0000549419049104083
426,0.00185108184814453,0.0000463734862000054
427,0.00185632705688477,0.0000453634814536866
428,0.00170087814331055,0.0000510727990684352
429,0.00175666809082031,0.0000346683897577162
430,0.00172519683837891,0.0000327389600634992
431,0.00175619125366211,0.0000545619238350174
432,0.00177478790283203,0.000070429994345233
433,0.00170707702636719,0.0000563273669465817
434,0.00160694122314453,0.00005424847906865
435,0.00164985656738281,0.0000495933568864766
436,0.00157976150512695,0.0000485859393081129
437,0.00153541564941406,0.0000486081633922569
438,0.00163841247558594,0.0000608635516571383
439,0.00157403945922852,0.0000493128934343278
440,0.00156784057617187,0.0000439725566230717
441,0.00146722793579102,0.0000501416435332303
442,0.00164270401000977,0.0000494303299231653
443,0.00144147872924805,0.0000424947259124018
444,0.00147485733032227,0.0000482254252368095
445,0.00146341323852539,0.000048094411320693
446,0.00134992599487305,0.0000402948559538326
447,0.00129795074462891,0.0000436586019157808
448,0.00133705139160156,0.0000587081243032532
449,0.00142574310302734,0.0000587313574107695
450,0.00139760971069336,0.0000683692037379548
451,0.00139474868774414,0.0000493451587323577
452,0.00137710571289062,0.0000408844417232389
453,0.00122404098510742,0.0000459560701578634
454,0.00129461288452148,0.0000459672009795458
455,0.00122356414794922,0.0000512672020036791
456,0.00131034851074219,0.0000699066692548099
457,0.00118541717529297,0.0000484089535722026
458,0.00125360488891602,0.0000556236216781484
459,0.00118541717529297,0.0000516284959806211
460,0.00108480453491211,0.0000588087348132
461,0.00113868713378906,0.000050455815889748
462,0.00108528137207031,0.0000624146872247943
463,0.00113725662231445,0.000054904646333679
464,0.00108051300048828,0.0000474866131263144
465,0.00095367431640625,0.0000474267233142052
466,0.00106716156005859,0.0000482913874534943
467,0.000971794128417969,0.0000625693211069256
468,0.00112056732177734,0.0000643270823167924
469,0.00101613998413086,0.0000563899002577022
470,0.00111150741577148,0.0000735412145948972
471,0.00100421905517578,0.0000762775522740266
472,0.000916004180908203,0.0000639530896350822
473,0.000963211059570313,0.0000548155372224182
474,0.00105905532836914,0.0000633655405930703
475,0.00104761123657227,0.0000802022523267834
476,0.00101280212402344,0.0000714158169726227
477,0.000989913940429688,0.0000530929858013982
478,0.000792503356933594,0.0000484793563923756
479,0.000832557678222656,0.0000510995038017991
480,0.000835895538330078,0.0000442020586973468
481,0.000881671905517578,0.0000428948088363323
482,0.000927925109863281,0.0000447058677037591
483,0.00078582763671875,0.0000577829450361103
484,0.000760555267333984,0.0000369279517231972
485,0.00107336044311523,0.0000390693783757725
486,0.000617027282714844,0.0000354587024830607
487,0.000824451446533203,0.0000460610873249948
488,0.000864982604980469,0.0000753266889666993
489,0.000764369964599609,0.0000782841150823169
490,0.000650405883789063,0.0000491743737971189
491,0.000672340393066406,0.0000640543361012596
492,0.000762939453125,0.0000702651548676465
493,0.000647544860839844,0.0000626601039542206
494,0.000758647918701172,0.0000493405506958595
495,0.000753879547119141,0.0000417865545428946
496,0.000657558441162109,0.0000502695835359324
497,0.000689983367919922,0.0000455722629622283
498,0.000659465789794922,0.0000655351917327417
499,0.000661849975585938,0.000081049693751614
500,0.000598907470703125,0.0000635357555540118
501,0.000518798828125,0.0000594920047733252
502,0.000492095947265625,0.0000507825976775227
503,0.000576972961425781,0.0000427587619586796
504,0.000650405883789063,0.0000466058013718163
505,0.000620365142822266,0.0000519905592744408
506,0.000529766082763672,0.0000625020569084744
507,0.000534534454345703,0.0000762104531250269
508,0.000588417053222656,0.0000698838978223538
509,0.0004425048828125,0.0000836098298736588
510,0.000464439392089844,0.000061803320086957
511,0.0005645751953125,0.0000616615163676805
512,0.000479698181152344,0.0000842383822073277
513,0.000391960144042969,0.0000609102311784089
514,0.000513076782226563,0.0000443112330486304
515,0.000420570373535156,0.0000550535293478836
516,0.000447273254394531,0.0000703330767345135
517,0.000484466552734375,0.0000815503073755035
518,0.000414371490478516,0.0000641997088370303
519,0.000331878662109375,0.000070347622888211
520,0.000403404235839844,0.0000732034342284984
521,0.000300407409667969,0.0000506121707452215
522,0.000323772430419922,0.0000637447641288757
523,0.000391483306884766,0.0000631858715782865
524,0.000342369079589844,0.0000441853376607366
525,0.000319480895996094,0.0000558876746659197
526,0.000279903411865234,0.0000519008278640714
527,0.000374794006347656,0.0000473031113145515
528,0.000413894653320313,0.0000520222565058752
529,0.00029754638671875,0.0000643694841334154
530,0.000346183776855469,0.0000638855028485025
531,0.000266075134277344,0.0000615027516837549
532,0.000205516815185547,0.000058126234440644
533,0.000263214111328125,0.0000581311238876156
534,0.000355243682861328,0.0000517044097638084
535,0.000200271606445312,0.000040086948639115
536,0.000293254852294922,0.0000436755246119723
537,0.000208854675292969,0.0000450957886411167
538,0.000293254852294922,0.00003751363113239
539,0.000214576721191406,0.0000580479472783576
540,0.000202178955078125,0.0000537843990932921
541,0.000223636627197266,0.0000439751419513876
542,0.000274181365966797,0.0000413654517024539
543,0.000231266021728516,0.0000527525014928175
544,0.000166893005371094,0.0000575186983904952
545,0.000151157379150391,0.0000548445653865405
546,0.000197410583496094,0.0000642528118063542
547,0.000250339508056641,0.0000647972398388598
548,0.000261306762695312,0.0000408503641048246
549,0.000131130218505859,0.0000416782681618063
550,0.000171184539794922,0.0000441866241189688
551,0.000187873840332031,0.0000435621475050211
552,0.000174522399902344,0.0000503328669140602
553,0.000202178955078125,0.0000440603726826535
554,0.000111579895019531,0.0000390861065508331
555,0.000133991241455078,0.0000623089520710563
556,0.000115394592285156,0.000048993712776786
557,0.000149726867675781,0.0000446040318819754
558,0.000170707702636719,0.0000432859419730004
559,0.000166416168212891,0.0000469073028137854
560,0.0000805854797363281,0.0000512261611707372
561,0.0000786781311035156,0.0000408733174616295
562,0.0000438690185546875,0.0000437028474326691
563,0.000170707702636719,0.0000380492448672233
564,0.000026702880859375,0.0000380350497568698
565,0.0000605583190917969,0.0000454723674826894
566,0.0000734329223632813,0.0000465643143300389
567,-0.000019073486328125,0.0000405641029207329
568,-0.00000286102294921875,0.00003501751321361
569,0.0000271797180175781,0.0000321069369613601
570,0.0000491142272949219,0.0000395034476721433
571,-0.0000438690185546875,0.0000477456644104346
572,-0.0000128746032714844,0.0000347028049584623
573,-0.00000762939453125,0.0000299943459723663
574,-0.0000262260437011719,0.0000341496644397619
575,0.000102519989013672,0.0000384112975562026
576,0.0000576972961425781,0.0000334322022167261
577,0.0000476837158203125,0.0000286767107712741
578,0.0000386238098144531,0.0000285132074354448
579,0.0000743865966796875,0.0000332677225733883
580,0.0000138282775878906,0.0000362944815182744
581,0.0000867843627929688,0.0000295230175134961
582,0.0000157356262207031,0.0000269513195950186
583,0.0000367164611816406,0.0000309099366581761
584,0.0000805854797363281,0.0000430324070466497
585,0.00000143051147460937,0.0000386348461348814
586,-0.0000605583190917969,0.0000363859872572819
587,0.0000143051147460937,0.0000264488853113044
588,-0.0000371932983398437,0.000030267424073915
589,-0.0000567436218261719,0.0000310594536572486
590,-0.0000252723693847656,0.0000368177268387619
591,-0.0000853538513183594,0.0000312000568587837
592,-0.0000338554382324219,0.0000245652139137101
593,-0.0000948905944824219,0.0000427893271915629
594,-0.0000324249267578125,0.0000341380106843425
595,-0.0000681877136230469,0.0000307476786521025
596,-0.0000472068786621094,0.0000430706974000012
597,-0.0000700950622558594,0.0000410841633680526
598,-0.0000257492065429687,0.0000450137813198621
599,-0.0000462532043457031,0.000028716327714625
600,0.0000100135803222656,0.0000318116863114637
601,0.0000319480895996094,0.0000307412075000468
602,-0.0000433921813964844,0.0000291022081519016
603,-0.0000920295715332031,0.0000329086738738606
604,-0.000111103057861328,0.0000356034863545134
605,-0.00006103515625,0.000033970255316869
606,-0.0000205039978027344,0.0000355051615976627
607,-0.0000748634338378906,0.0000407674855816778
608,-0.0000958442687988281,0.0000274900860683449
609,-0.000141620635986328,0.0000228714136438172
610,-0.0000844001770019531,0.0000270985554329626
611,-0.0000791549682617188,0.0000260635238810121
612,-0.000101566314697266,0.0000269934689261545
613,-0.00003814697265625,0.0000296392749031476
614,-0.000123500823974609,0.000025334708683283
615,-0.000161170959472656,0.000032942339162113
616,-0.000124454498291016,0.0000387626378197839
617,-0.000143051147460937,0.0000333138246053859
618,-0.0000514984130859375,0.0000373298327530771
619,-0.0000600814819335938,0.0000421481971884679
620,-0.0000514984130859375,0.0000402595733384878
621,-0.000113010406494141,0.0000331856052680872
