Wavelength (nm),Absorbance (AU),Std.Dev.
190,0.0915427207946777,0.0000579519013763505
191,0.0878152847290039,0.0000344850861386044
192,0.0840268135070801,0.0000452053194662536
193,0.0801558494567871,0.0000446002085153771
194,0.0763297080993652,0.0000370861613375678
195,0.0725350379943848,0.0000382013231762137
196,0.0689373016357422,0.0000319107036192014
197,0.0654444694519043,0.0000312701213819777
198,0.0618948936462402,0.0000318634634695115
199,0.0583419799804688,0.00002994835361911
200,0.0546636581420898,0.000032189157165027
201,0.0512681007385254,0.0000280625858555058
202,0.0483822822570801,0.0000273402808694356
203,0.0459370613098145,0.000035672869495415
204,0.0439519882202148,0.0000322949384464208
205,0.0422921180725098,0.0000307106822740643
206,0.040677547454834,0.0000386855726565777
207,0.0392045974731445,0.000037651268543964
208,0.0378928184509277,0.0000410218548088133
209,0.0366916656494141,0.0000337301204933969
210,0.0354585647583008,0.0000495096142998081
211,0.0342388153076172,0.0000372909828110068
212,0.0331645011901855,0.0000309246451703853
213,0.0320444107055664,0.0000347617231756865
214,0.0310611724853516,0.0000258763802041725
215,0.0300188064575195,0.0000240926663467774
216,0.0290460586547852,0.000036444523938469
217,0.0280900001525879,0.0000334322022167261
218,0.0273222923278809,0.0000398865090861095
219,0.0264110565185547,0.0000327701978803666
220,0.0256543159484863,0.0000256430237956023
221,0.0248775482177734,0.0000229588550040343
222,0.0240874290466309,0.000031441435994692
223,0.0234193801879883,0.0000304933541238923
224,0.0227103233337402,0.0000294430052701275
225,0.0220208168029785,0.0000262466263198555
226,0.0214071273803711,0.0000315289979072886
227,0.0207014083862305,0.0000380238393475021
228,0.0200376510620117,0.0000387244913842258
229,0.0194206237792969,0.0000303733479616832
230,0.0187664031982422,0.0000291441724248197
231,0.0182390213012695,0.0000338529196326218
232,0.0177111625671387,0.0000287232550618095
233,0.0171160697937012,0.0000339275585907881
234,0.0165486335754395,0.0000270975065851913
235,0.0160665512084961,0.0000250044148911753
236,0.0156302452087402,0.0000202079964641734
237,0.0153021812438965,0.0000259027275498845
238,0.0150308609008789,0.000029081203307482
239,0.0147042274475098,0.0000261669142599555
240,0.0145382881164551,0.0000195375988418496
241,0.014369010925293,0.0000295432272255127
242,0.0141634941101074,0.0000333487854353305
243,0.0140023231506348,0.0000236040413904952
244,0.0138421058654785,0.0000285440912316611
245,0.013679027557373,0.0000346921562826511
246,0.0135846138000488,0.0000386370530206762
247,0.0134496688842773,0.000032251786333999
248,0.0133228302001953,0.0000231701892402911
249,0.0132012367248535,0.0000258070904420211
250,0.013056755065918,0.0000265486340922577
251,0.0128874778747559,0.0000207372774137959
252,0.0128293037414551,0.0000201608250467139
253,0.0127325057983398,0.0000231272166455623
254,0.0126128196716309,0.0000263439044348328
255,0.0124826431274414,0.0000212751012579
256,0.0124106407165527,0.0000297182805498631
257,0.0123229026794434,0.0000241215512656054
258,0.0121769905090332,0.0000331684719067985
259,0.012143611907959,0.0000289504367737895
260,0.0120744705200195,0.000036407851961015
261,0.0118770599365234,0.0000289975218509876
262,0.0118074417114258,0.0000423077110762091
263,0.0117220878601074,0.0000418972745872642
264,0.0116448402404785,0.0000285102169055257
265,0.0114917755126953,0.0000279066884474403
266,0.0114312171936035,0.0000332634506346775
267,0.0113019943237305,0.0000345147436476928
268,0.0112109184265137,0.0000348246226310543
269,0.0110812187194824,0.0000513281480024434
270,0.0108661651611328,0.0000456470411063168
271,0.0108089447021484,0.0000460795949214685
272,0.0106954574584961,0.0000479582986973685
273,0.0106158256530762,0.000041090389027394
274,0.0105209350585937,0.0000446218699278323
275,0.0103702545166016,0.0000364070713048485
276,0.0101981163024902,0.0000334593953092941
277,0.0101547241210937,0.0000397623295619675
278,0.010042667388916,0.0000438677227824034
279,0.00989866256713867,0.0000355978979247932
280,0.00971460342407227,0.0000317123598378521
281,0.00966453552246094,0.0000279351906353009
282,0.00956392288208008,0.0000300842303391957
283,0.00946187973022461,0.0000381603813447426
284,0.00931262969970703,0.0000318804066666542
285,0.00924491882324219,0.0000244184160448717
286,0.00915288925170898,0.0000350093958456404
287,0.00895786285400391,0.0000383602083421055
288,0.00886392593383789,0.0000245646354118458
289,0.00871992111206055,0.0000263649340514895
290,0.00860357284545898,0.0000332711397294318
291,0.00848531723022461,0.0000356688856139718
292,0.00835943222045898,0.0000339585399926029
293,0.00829935073852539,0.0000561130168279863
294,0.00821447372436523,0.0000412036696316694
295,0.00811862945556641,0.0000379168003637907
296,0.00801277160644531,0.0000379557585566185
297,0.00790834426879883,0.0000355435645958795
298,0.00780344009399414,0.0000443881356282659
299,0.00769805908203125,0.0000428610033800376
300,0.00763082504272461,0.0000334475010516415
301,0.00754022598266602,0.0000333359991410007
302,0.00744295120239258,0.0000429444744003237
303,0.00729799270629883,0.0000314558959832666
304,0.00731563568115234,0.0000388505251059884
305,0.0072169303894043,0.0000336617989948747
306,0.00708627700805664,0.000041254682208344
307,0.006988525390625,0.0000386149784870679
308,0.00697231292724609,0.000029608093583873
309,0.00691652297973633,0.000034066335867866
310,0.00687694549560547,0.0000370876940452468
311,0.0066828727722168,0.000036400044645942
312,0.00657272338867188,0.0000328386433825819
313,0.00651645660400391,0.0000348874086834723
314,0.0065159797668457,0.0000397065368110009
315,0.00644588470458984,0.0000270129407491334
316,0.00638151168823242,0.0000290802259687273
317,0.00624608993530273,0.0000300279658265352
318,0.00620841979980469,0.0000334627928920922
319,0.00610876083374023,0.0000410384796746666
320,0.00604772567749023,0.0000366397464952434
321,0.00602531433105469,0.0000556042016279082
322,0.00593376159667969,0.0000455036083780593
323,0.00586891174316406,0.0000438482816031366
324,0.00583028793334961,0.0000456545121843187
325,0.00571060180664063,0.0000325945317270935
326,0.00566530227661133,0.0000447147673035437
327,0.00558042526245117,0.0000388205193272545
328,0.00559282302856445,0.0000441055039678108
329,0.00539302825927734,0.0000544022926576337
330,0.00541973114013672,0.0000553757625127199
331,0.00528717041015625,0.0000442316265849594
332,0.00524759292602539,0.0000449847275355177
333,0.00524616241455078,0.0000404687007550124
334,0.00518035888671875,0.0000345287397277484
335,0.00513839721679688,0.000047134575236824
336,0.00503253936767578,0.0000630688122466557
337,0.00490999221801758,0.0000533834052975993
338,0.00491714477539063,0.0000541446440964138
339,0.00488662719726563,0.0000534153401776999
340,0.0047907829284668,0.0000462298481754879
341,0.00476884841918945,0.0000411194296411652
342,0.00471210479736328,0.000032083912980657
343,0.00461101531982422,0.000031680078967806
344,0.00463581085205078,0.0000360958169835312
345,0.00456142425537109,0.0000388073387299135
346,0.00447702407836914,0.0000400408370163398
347,0.00446081161499023,0.0000634408498447227
348,0.00435590744018555,0.0000487447936541101
349,0.00427389144897461,0.0000345213307451616
350,0.00436210632324219,0.0000373298327530771
351,0.00418996810913086,0.0000546223156701187
352,0.00413417816162109,0.000069957065334676
353,0.00406932830810547,0.00004752251078531
354,0.00407028198242188,0.0000377417439082111
355,0.00399971008300781,0.0000429861491286238
356,0.00395441055297852,0.0000345394387857096
357,0.00397109985351562,0.0000314649301016019
358,0.00399923324584961,0.0000392160515258632
359,0.00392866134643555,0.000046250746356896
360,0.00381040573120117,0.0000405101160515682
361,0.00377511978149414,0.0000408392305607607
362,0.00375223159790039,0.0000450036777831611
363,0.00370979309082031,0.000068872851088776
364,0.00367164611816406,0.0000678517662288504
365,0.00357151031494141,0.0000467166589531172
366,0.00359010696411133,0.0000501665777848501
367,0.00353574752807617,0.0000535704848270646
368,0.00346899032592773,0.0000599498290313946
369,0.00356674194335937,0.0000492633020091359
370,0.00354194641113281,0.0000556501855017083
371,0.00352048873901367,0.0000869100310563986
372,0.00336933135986328,0.0000726234106578671
373,0.00333118438720703,0.000056465452835364
374,0.00325298309326172,0.0000473511543000349
375,0.00312232971191406,0.0000524401651184297
376,0.00311374664306641,0.0000701501850148513
377,0.00312423706054687,0.000068054201891604
378,0.00306272506713867,0.0000585976412469476
379,0.00308895111083984,0.0000781343918236444
380,0.00299215316772461,0.0000884452595108916
381,0.00300788879394531,0.0000799921869579988
382,0.00309181213378906,0.0000647410714548388
383,0.00301170349121094,0.0000807348818908601
384,0.00294303894042969,0.0000745377472121031
385,0.00297689437866211,0.0000875148837834447
386,0.00293588638305664,0.0000675343509313282
387,0.00292158126831055,0.0000938751772985212
388,0.00293779373168945,0.0000923932750303869
389,0.00284051895141602,0.0000696720933877945
390,0.00279617309570312,0.000063878384290026
391,0.00266933441162109,0.0000542997986765155
392,0.00274991989135742,0.0000690327810798225
393,0.00270366668701172,0.0000631534768714259
394,0.00271749496459961,0.00005691965830353
395,0.00273704528808594,0.0000703750907530817
396,0.00261878967285156,0.0000789896260773384
397,0.00251245498657227,0.0000807517779249253
398,0.00243377685546875,0.0000729108807508369
399,0.00247335433959961,0.0000537780574658493
400,0.002532958984375,0.0000506727828008332
401,0.00249671936035156,0.0000765438754494519
402,0.00254297256469727,0.0000500792535900731
403,0.00239944458007812,0.000064633865263641
404,0.00234603881835937,0.0000990330051880098
405,0.00226259231567383,0.0000731879023206135
406,0.00239181518554687,0.0000720039898023476
407,0.00230121612548828,0.000070955868646219
408,0.00236082077026367,0.0000731910089658733
409,0.00227546691894531,0.0000762492287245153
410,0.00222635269165039,0.0000678819188483394
411,0.00227928161621094,0.0000663129465720843
412,0.00218963623046875,0.0000566995273092453
413,0.00208520889282227,0.0000621902421549344
414,0.00207853317260742,0.0000653997416566965
415,0.00208663940429687,0.0000825134979107791
416,0.00200366973876953,0.0000538266575159129
417,0.00202655792236328,0.0000568757002640923
418,0.00196170806884766,0.0000558245787769593
419,0.00202178955078125,0.0000549481122169878
420,0.00195503234863281,0.0000475822800339158
421,0.00199604034423828,0.0000530608569114354
422,0.00182199478149414,0.0000489135921789783
423,0.00182914733886719,0.0000555551102101907
424,0.00184059143066406,0.0000804739524565194
425,0.00188779830932617,0.0000549419049104083
426,0.00185108184814453,0.0000463734862000054
427,0.00185632705688477,0.0000453634814536866
428,0.00170087814331055,0.0000510727990684352
429,0.00175666809082031,0.0000346683897577162
430,0.00172519683837891,0.0000327389600634992
431,0.00175619125366211,0.0000545619238350174
432,0.00177478790283203,0.000070429994345233
433,0.00170707702636719,0.0000563273669465817
434,0.00160694122314453,0.00005424847906865
435,0.00164985656738281,0.0000495933568864766
436,0.00157976150512695,0.0000485859393081129
437,0.00153541564941406,0.0000486081633922569
438,0.00163841247558594,0.0000608635516571383
439,0.00157403945922852,0.0000493128934343278
440,0.00156784057617187,0.0000439725566230717
441,0.00146722793579102,0.0000501416435332303
442,0.00164270401000977,0.0000494303299231653
443,0.00144147872924805,0.0000424947259124018
444,0.00147485733032227,0.0000482254252368095
445,0.00146341323852539,0.000048094411320693
446,0.00134992599487305,0.0000402948559538326
447,0.00129795074462891,0.0000436586019157808
448,0.00133705139160156,0.0000587081243032532
449,0.00142574310302734,0.0000587313574107695
450,0.00139760971069336,0.0000683692037379548
451,0.00139474868774414,0.0000493451587323577
452,0.00137710571289062,0.0000408844417232389
453,0.00122404098510742,0.0000459560701578634
454,0.00129461288452148,0.0000459672009795458
455,0.00122356414794922,0.0000512672020036791
456,0.00131034851074219,0.0000699066692548099
457,0.00118541717529297,0.0000484089535722026
458,0.00125360488891602,0.0000556236216781484
459,0.00118541717529297,0.0000516284959806211
460,0.00108480453491211,0.0000588087348132
461,0.00113868713378906,0.000050455815889748
462,0.00108528137207031,0.0000624146872247943
463,0.00113725662231445,0.000054904646333679
464,0.00108051300048828,0.0000474866131263144
465,0.00095367431640625,0.0000474267233142052
466,0.00106716156005859,0.0000482913874534943
467,0.000971794128417969,0.0000625693211069256
468,0.00112056732177734,0.0000643270823167924
469,0.00101613998413086,0.0000563899002577022
470,0.00111150741577148,0.0000735412145948972
471,0.00100421905517578,0.0000762775522740266
472,0.000916004180908203,0.0000639530896350822
473,0.000963211059570313,0.0000548155372224182
474,0.00105905532836914,0.0000633655405930703
475,0.00104761123657227,0.0000802022523267834
476,0.00101280212402344,0.0000714158169726227
477,0.000989913940429688,0.0000530929858013982
478,0.000792503356933594,0.0000484793563923756
479,0.000832557678222656,0.0000510995038017991
480,0.000835895538330078,0.0000442020586973468
481,0.000881671905517578,0.0000428948088363323
482,0.000927925109863281,0.0000447058677037591
483,0.00078582763671875,0.0000577829450361103
484,0.000760555267333984,0.0000369279517231972
485,0.00107336044311523,0.0000390693783757725
486,0.000617027282714844,0.0000354587024830607
487,0.000824451446533203,0.0000460610873249948
488,0.000864982604980469,0.0000753266889666993
489,0.000764369964599609,0.0000782841150823169
490,0.000650405883789063,0.0000491743737971189
491,0.000672340393066406,0.0000640543361012596
492,0.000762939453125,0.0000702651548676465
493,0.000647544860839844,0.0000626601039542206
494,0.000758647918701172,0.0000493405506958595
495,0.000753879547119141,0.0000417865545428946
496,0.000657558441162109,0.0000502695835359324
497,0.000689983367919922,0.0000455722629622283
498,0.000659465789794922,0.0000655351917327417
499,0.000661849975585938,0.000081049693751614
500,0.000598907470703125,0.0000635357555540118
501,0.000518798828125,0.0000594920047733252
502,0.000492095947265625,0.0000507825976775227
503,0.000576972961425781,0.0000427587619586796
504,0.000650405883789063,0.0000466058013718163
505,0.000620365142822266,0.0000519905592744408
506,0.000529766082763672,0.0000625020569084744
507,0.000534534454345703,0.0000762104531250269
508,0.000588417053222656,0.0000698838978223538
509,0.0004425048828125,0.0000836098298736588
510,0.000464439392089844,0.000061803320086957
511,0.0005645751953125,0.0000616615163676805
512,0.000479698181152344,0.0000842383822073277
513,0.000391960144042969,0.0000609102311784089
514,0.000513076782226563,0.0000443112330486304
515,0.000420570373535156,0.0000550535293478836
516,0.000447273254394531,0.0000703330767345135
517,0.000484466552734375,0.0000815503073755035
518,0.000414371490478516,0.0000641997088370303
519,0.000331878662109375,0.000070347622888211
520,0.000403404235839844,0.0000732034342284984
521,0.000300407409667969,0.0000506121707452215
522,0.000323772430419922,0.0000637447641288757
523,0.000391483306884766,0.0000631858715782865
524,0.000342369079589844,0.0000441853376607366
525,0.000319480895996094,0.0000558876746659197
526,0.000279903411865234,0.0000519008278640714
527,0.000374794006347656,0.0000473031113145515
528,0.000413894653320313,0.0000520222565058752
529,0.00029754638671875,0.0000643694841334154
530,0.000346183776855469,0.0000638855028485025
531,0.000266075134277344,0.0000615027516837549
532,0.000205516815185547,0.000058126234440644
533,0.000263214111328125,0.0000581311238876156
534,0.000355243682861328,0.0000517044097638084
535,0.000200271606445312,0.000040086948639115
536,0.000293254852294922,0.0000436755246119723
537,0.000208854675292969,0.0000450957886411167
538,0.000293254852294922,0.00003751363113239
539,0.000214576721191406,0.0000580479472783576
540,0.000202178955078125,0.0000537843990932921
541,0.000223636627197266,0.0000439751419513876
542,0.000274181365966797,0.0000413654517024539
543,0.000231266021728516,0.0000527525014928175
544,0.000166893005371094,0.0000575186983904952
545,0.000151157379150391,0.0000548445653865405
546,0.000197410583496094,0.0000642528118063542
547,0.000250339508056641,0.0000647972398388598
548,0.000261306762695312,0.0000408503641048246
549,0.000131130218505859,0.0000416782681618063
550,0.000171184539794922,0.0000441866241189688
551,0.000187873840332031,0.0000435621475050211
552,0.000174522399902344,0.0000503328669140602
553,0.000202178955078125,0.0000440603726826535
554,0.000111579895019531,0.0000390861065508331
555,0.000133991241455078,0.0000623089520710563
556,0.000115394592285156,0.000048993712776786
557,0.000149726867675781,0.0000446040318819754
558,0.000170707702636719,0.0000432859419730004
559,0.000166416168212891,0.0000469073028137854
560,0.0000805854797363281,0.0000512261611707372
561,0.0000786781311035156,0.0000408733174616295
562,0.0000438690185546875,0.0000437028474326691
563,0.000170707702636719,0.0000380492448672233
564,0.000026702880859375,0.0000380350497568698
565,0.0000605583190917969,0.0000454723674826894
566,0.0000734329223632813,0.0000465643143300389
567,-0.000019073486328125,0.0000405641029207329
568,-0.00000286102294921875,0.00003501751321361
569,0.0000271797180175781,0.0000321069369613601
570,0.0000491142272949219,0.0000395034476721433
571,-0.0000438690185546875,0.0000477456644104346
572,-0.0000128746032714844,0.0000347028049584623
573,-0.00000762939453125,0.0000299943459723663
574,-0.0000262260437011719,0.0000341496644397619
575,0.000102519989013672,0.0000384112975562026
576,0.0000576972961425781,0.0000334322022167261
577,0.0000476837158203125,0.0000286767107712741
578,0.0000386238098144531,0.0000285132074354448
579,0.0000743865966796875,0.0000332677225733883
580,0.0000138282775878906,0.0000362944815182744
581,0.0000867843627929688,0.0000295230175134961
582,0.0000157356262207031,0.0000269513195950186
583,0.0000367164611816406,0.0000309099366581761
584,0.0000805854797363281,0.0000430324070466497
585,0.00000143051147460937,0.0000386348461348814
586,-0.0000605583190917969,0.0000363859872572819
587,0.0000143051147460937,0.0000264488853113044
588,-0.0000371932983398437,0.000030267424073915
589,-0.0000567436218261719,0.0000310594536572486
590,-0.0000252723693847656,0.0000368177268387619
591,-0.0000853538513183594,0.0000312000568587837
592,-0.0000338554382324219,0.0000245652139137101
593,-0.0000948905944824219,0.0000427893271915629
594,-0.0000324249267578125,0.0000341380106843425
595,-0.0000681877136230469,0.0000307476786521025
596,-0.0000472068786621094,0.0000430706974000012
597,-0.0000700950622558594,0.0000410841633680526
598,-0.0000257492065429687,0.0000450137813198621
599,-0.0000462532043457031,0.000028716327714625
600,0.0000100135803222656,0.0000318116863114637
601,0.0000319480895996094,0.0000307412075000468
602,-0.0000433921813964844,0.0000291022081519016
603,-0.0000920295715332031,0.0000329086738738606
604,-0.000111103057861328,0.0000356034863545134
605,-0.00006103515625,0.000033970255316869
606,-0.0000205039978027344,0.0000355051615976627
607,-0.0000748634338378906,0.0000407674855816778
608,-0.0000958442687988281,0.0000274900860683449
609,-0.000141620635986328,0.0000228714136438172
610,-0.0000844001770019531,0.0000270985554329626
611,-0.0000791549682617188,0.0000260635238810121
612,-0.000101566314697266,0.0000269934689261545
613,-0.00003814697265625,0.0000296392749031476
614,-0.000123500823974609,0.000025334708683283
615,-0.000161170959472656,0.000032942339162113
616,-0.000124454498291016,0.0000387626378197839
617,-0.000143051147460937,0.0000333138246053859
618,-0.0000514984130859375,0.0000373298327530771
619,-0.0000600814819335938,0.0000421481971884679
620,-0.0000514984130859375,0.0000402595733384878
621,-0.000113010406494141,0.0000331856052680872
622,-0.0000901222229003906,0.0000240460237181148
623,-0.000167369842529297,0.0000317786119816633
624,-0.000188827514648437,0.0000408002392313913
625,-0.0001068115234375,0.000037779378027914
626,-0.000117301940917969,0.0000333743433280347
627,-0.000119209289550781,0.0000306829057159309
628,-0.000179767608642578,0.0000398301767129684
629,-0.000184059143066406,0.000040280041019642
630,-0.000216960906982422,0.0000252965370718118
631,-0.000171184539794922,0.0000245478529273626
632,-0.000128269195556641,0.0000262114093871573
633,-0.000189304351806641,0.000036456999599575
634,-0.000214099884033203,0.0000359988369699453
635,-0.000133037567138672,0.0000347068997330413
636,-0.000135421752929687,0.0000382251236991729
637,-0.000181198120117187,0.0000366800610825073
638,-0.000240325927734375,0.0000336921812094488
639,-0.000203609466552734,0.0000395322161627728
640,-0.000173091888427734,0.0000351536047374087
641,-0.000110626220703125,0.0000340554881776354
642,-0.0000834465026855469,0.0000392211244256356
643,-0.0000371932983398437,0.0000453860310302406
644,-0.0000319480895996094,0.0000407060887312028
645,-0.000240802764892578,0.0000430271229444598
646,-0.000188827514648437,0.0000343744694193178
647,-0.000194549560546875,0.0000381990911168962
648,-0.0000777244567871094,0.0000347249110048438
649,-0.000153541564941406,0.00003819983515116
650,-0.000211238861083984,0.0000345665830601491
651,-0.000179767608642578,0.0000561919765703269
652,-0.000243663787841797,0.0000524986667153094
653,-0.000258445739746094,0.0000390038513351157
654,-0.000169277191162109,0.0000426296153041525
655,0.0000128746032714844,0.0000234687943246303
656,-0.000401020050048828,0.0000294666459424693
657,-0.000603199005126953,0.0000269771438754166
658,-0.000249862670898437,0.0000256469027632547
659,-0.00026702880859375,0.0000329362992083151
660,-0.000248908996582031,0.0000307883233210715
661,-0.000227928161621094,0.000029052357993022
662,-0.000226020812988281,0.0000314884066791109
663,-0.000270366668701172,0.0000384098176657142
664,-0.000198841094970703,0.0000353792606383315
665,-0.000240802764892578,0.000038698794726798
666,-0.000235557556152344,0.0000423332312306147
667,-0.000323772430419922,0.00003085011121514
668,-0.000221729278564453,0.0000317562449607883
669,-0.000258445739746094,0.0000387435692968182
670,-0.000187397003173828,0.0000444457252415888
671,-0.000183582305908203,0.0000370562608666948
672,-0.000188350677490234,0.0000412863609607222
673,-0.000229358673095703,0.0000268890287329247
674,-0.000307083129882812,0.0000259263076435704
675,-0.000270843505859375,0.0000251212188436925
676,-0.000203609466552734,0.0000303485405876736
677,-0.000285148620605469,0.0000482266039246889
678,-0.000303745269775391,0.0000457614636001971
679,-0.000308513641357422,0.0000366172440810165
680,-0.000269412994384766,0.0000368293043764962
681,-0.000229835510253906,0.0000336229373241505
682,-0.000151157379150391,0.0000336963987948956
683,-0.000212192535400391,0.0000259367199257777
684,-0.000230789184570312,0.0000365348759637896
685,-0.000316143035888672,0.0000433266322769186
686,-0.000260353088378906,0.0000286420009950279
687,-0.000251293182373047,0.000027004522224348
688,-0.000226974487304687,0.0000391130020811613
689,-0.000230312347412109,0.0000506189090021682
690,-0.000245571136474609,0.0000417498095318747
691,-0.00030517578125,0.0000299155943705714
692,-0.000274181365966797,0.0000369202543908107
693,-0.000246047973632812,0.0000443048184749856
694,-0.000241279602050781,0.0000430469349831493
695,-0.000250816345214844,0.0000359530157969366
696,-0.000363349914550781,0.000035243234038997
697,-0.000308990478515625,0.0000353704227527397
698,-0.000274658203125,0.0000288516035221211
699,-0.000276565551757812,0.000034253540090127
700,-0.000304222106933594,0.0000338462024502287
701,-0.000292301177978516,0.000035336657766622
702,-0.000270366668701172,0.000023448803607873
703,-0.000317573547363281,0.000024847059629808
704,-0.000334262847900391,0.00003134002926763
705,-0.000314712524414062,0.0000332865125904603
706,-0.000229835510253906,0.0000413578930428107
707,-0.000287055969238281,0.0000359790936200063
708,-0.000283718109130859,0.0000441596006258988
709,-0.000288009643554687,0.0000485086607438508
710,-0.000314235687255859,0.0000346175238343755
711,-0.000310897827148437,0.0000289052416029617
712,-0.000264644622802734,0.0000383720611741344
713,-0.000323772430419922,0.0000520997786697919
714,-0.000287055969238281,0.0000481062290006317
715,-0.000353813171386719,0.0000318250850314948
716,-0.000307559967041016,0.0000307920156306514
717,-0.000275611877441406,0.0000456445504752356
718,-0.000301361083984375,0.0000513048862562678
719,-0.000299453735351562,0.0000445083491864073
720,-0.00038909912109375,0.0000450566960749997
721,-0.000336647033691406,0.0000348401258085228
722,-0.000326156616210937,0.0000335586324880846
723,-0.000374794006347656,0.0000416202636508259
724,-0.000318050384521484,0.000042750784825693
725,-0.000387191772460937,0.000049021550115837
726,-0.000414371490478516,0.0000360627311793828
727,-0.000326156616210937,0.0000319178281344988
728,-0.00028228759765625,0.0000471948357836099
729,-0.000316619873046875,0.0000496013795688537
730,-0.000342369079589844,0.0000426935717548985
731,-0.000408649444580078,0.0000310127497511084
732,-0.00032806396484375,0.0000347641759344248
733,-0.000391006469726562,0.0000346364021667574
734,-0.000333309173583984,0.0000400670916771724
735,-0.000375270843505859,0.0000362764660633663
736,-0.000413417816162109,0.0000291880239169485
737,-0.000533103942871094,0.0000358072640091977
738,-0.000491619110107422,0.0000329759700813677
739,-0.000435352325439453,0.0000318125797350329
740,-0.000368118286132812,0.0000426815872203832
741,-0.000339031219482422,0.0000338739022423498
742,-0.000461578369140625,0.0000341804445238237
743,-0.000392913818359375,0.0000269476283918794
744,-0.000430107116699219,0.0000251675627816041
745,-0.000425815582275391,0.0000341171905058545
746,-0.000377178192138672,0.0000304607144706911
747,-0.000410079956054688,0.0000257789916385747
748,-0.000439643859863281,0.0000411802102334906
749,-0.000406265258789063,0.0000373511449503333
750,-0.000439643859863281,0.0000362333493070848
751,-0.000466346740722656,0.0000352891714326446
752,-0.00046539306640625,0.0000418504411200075
753,-0.000399112701416016,0.0000390351724215844
754,-0.000405311584472656,0.000049241373609259
755,-0.000445842742919922,0.0000393708418619081
756,-0.000402450561523438,0.0000258214035545678
757,-0.000410079956054688,0.0000367048480506324
758,-0.000423431396484375,0.0000376331473692679
759,-0.000482559204101563,0.0000538825988769531
760,-0.000398635864257812,0.0000383690983093956
761,-0.000413894653320313,0.0000347559993988237
762,-0.000378608703613281,0.0000310530474761294
763,-0.000439167022705078,0.0000336736175578954
764,-0.000457286834716797,0.0000371183349080783
765,-0.000407218933105469,0.0000430944467141818
766,-0.000446319580078125,0.0000385973097702943
767,-0.000423908233642578,0.0000306977230079769
768,-0.000462055206298828,0.00003778690035402
769,-0.000424385070800781,0.0000515403400280138
770,-0.000391960144042969,0.0000490493716561674
771,-0.000388622283935547,0.0000420056730080395
772,-0.000471591949462891,0.0000441518765899316
773,-0.000385284423828125,0.0000385376180449224
774,-0.000330448150634766,0.000028608739337261
775,-0.000448226928710938,0.000055773643002218
776,-0.000427722930908203,0.0000377643288805562
777,-0.000425815582275391,0.0000434275367821373
778,-0.000437736511230469,0.000057554264748103
779,-0.000394344329833984,0.0000413757567402816
780,-0.000378608703613281,0.0000458879898043025
781,-0.000419139862060547,0.0000296248876031867
782,-0.000390052795410156,0.0000409233528254605
783,-0.000545978546142578,0.0000306096401985175
784,-0.000344753265380859,0.0000338260428996536
785,-0.000435829162597656,0.00003304226908158
786,-0.00043487548828125,0.0000488193697828634
787,-0.0003814697265625,0.0000368748074241668
788,-0.00046539306640625,0.0000353583675305381
789,-0.000410079956054688,0.0000506873637672231
790,-0.000476837158203125,0.0000491396828765421
791,-0.000402450561523438,0.0000423479990275766
792,-0.000443935394287109,0.0000368485921892292
793,-0.000412464141845703,0.0000358881343141182
794,-0.000409126281738281,0.000047587058330778
795,-0.000433444976806641,0.000051027146151222
796,-0.000506877899169922,0.0000497067001942784
797,-0.000447750091552734,0.0000477718492464309
798,-0.000426292419433594,0.0000433502413780859
799,-0.00041961669921875,0.0000350110194697964
800,-0.000500202178955078,0.0000263298753591128
801,-0.0003662109375,0.0000308160048593042
802,-0.000430583953857422,0.0000420300241248721
803,-0.000319957733154297,0.0000384660134787429
804,-0.000456809997558594,0.000059175856356298
805,-0.000360965728759766,0.0000408635812485286
806,-0.000369548797607422,0.0000346167028037722
807,-0.000471591949462891,0.0000384637967794425
808,-0.000354290008544922,0.0000432465278069616
809,-0.000468730926513672,0.0000329259424240724
810,-0.000485420227050781,0.0000389892748149358
811,-0.000478267669677734,0.0000332378074722116
812,-0.000449657440185547,0.0000296397543595386
813,-0.000402450561523438,0.0000374772469190535
814,-0.000411033630371094,0.0000529278505920875
815,-0.000391960144042969,0.0000400472248693819
816,-0.000510692596435547,0.0000526057506725223
817,-0.00054931640625,0.0000446931509156469
818,-0.000470161437988281,0.0000459003755611758
819,-0.000460147857666016,0.0000380604477935932
820,-0.000451564788818359,0.0000391224474725971
821,-0.000482559204101563,0.0000458756007034519
822,-0.000472068786621094,0.0000337393880517496
823,-0.000518798828125,0.0000329613146686631
824,-0.000441074371337891,0.000035244846890932
825,-0.00046539306640625,0.0000335671006889028
826,-0.000529766082763672,0.0000362207966133746
827,-0.000460147857666016,0.0000344256944712665
828,-0.000544548034667969,0.0000326555131306914
829,-0.000504016876220703,0.0000491477796148633
830,-0.000589370727539063,0.0000512782884821954
831,-0.000469684600830078,0.0000521150511193207
832,-0.000544548034667969,0.0000551999513098948
833,-0.000514507293701172,0.0000377319528886035
834,-0.000570297241210938,0.0000362145186348868
835,-0.000561237335205078,0.0000402743958017145
836,-0.000548839569091797,0.0000443791705272786
837,-0.000521659851074219,0.0000377658340651512
838,-0.000565528869628906,0.0000351147752652448
839,-0.000560760498046875,0.0000283918390187236
840,-0.000571250915527344,0.0000261750592650584
841,-0.000504493713378906,0.0000442663115130431
842,-0.00041961669921875,0.0000499531020173097
843,-0.000574588775634766,0.0000506256463622551
844,-0.000616550445556641,0.0000548860075606468
845,-0.000534534454345703,0.0000482419242464394
846,-0.000551700592041016,0.0000447859004366605
847,-0.000581741333007813,0.0000385678439214538
848,-0.000623226165771484,0.0000417729490482667
849,-0.000533103942871094,0.0000336736175578954
850,-0.000513076782226563,0.0000374362724107679
851,-0.000537395477294922,0.0000488973198051111
852,-0.000544071197509766,0.0000482796150958797
853,-0.000539302825927734,0.0000485578522419013
854,-0.000555515289306641,0.0000382139690497357
855,-0.000560283660888672,0.0000459238992962673
856,-0.000531673431396484,0.000045342174334252
857,-0.000490665435791016,0.0000385376180449224
858,-0.0005340576171875,0.0000417484479844472
859,-0.000554561614990234,0.0000507937899280449
860,-0.000576019287109375,0.0000575601903377765
861,-0.000543594360351563,0.0000462630349949843
862,-0.000494003295898438,0.0000421205406668134
863,-0.000558853149414063,0.0000429424888806351
864,-0.000524997711181641,0.0000286702678473138
865,-0.000509262084960938,0.0000427853416603568
866,-0.000505924224853516,0.0000524715907510159
867,-0.000566482543945313,0.0000441621750043442
868,-0.000509738922119141,0.0000573454921326469
869,-0.000512123107910156,0.0000501586455038348
870,-0.000488758087158203,0.0000421090680013705
871,-0.000561237335205078,0.0000440151951218447
872,-0.000560283660888672,0.000054621274997279
873,-0.0006103515625,0.0000443727657747482
874,-0.000565052032470703,0.0000451323284515456
875,-0.000509738922119141,0.0000618327449866003
876,-0.000466346740722656,0.0000365138657140031
877,-0.000629901885986328,0.0000582278503928469
878,-0.000562667846679688,0.0000510026326174277
879,-0.000553607940673828,0.0000607354659449755
880,-0.000550746917724609,0.0000577701549950817
881,-0.000586032867431641,0.0000486479074663123
882,-0.000503063201904297,0.0000407109759613372
883,-0.000581264495849609,0.0000576075731126706
884,-0.000561237335205078,0.0000459412248672345
885,-0.000577449798583984,0.0000458731224817661
886,-0.000513553619384766,0.0000496494884396385
887,-0.000531196594238281,0.0000521684694831827
888,-0.000599384307861328,0.0000429358698185429
889,-0.000505447387695313,0.0000519599367033192
890,-0.000560283660888672,0.0000460734265486952
891,-0.000614643096923828,0.0000480151578374647
892,-0.000621795654296875,0.0000485613640135806
893,-0.000548362731933594,0.0000588918021321588
894,-0.000547409057617188,0.0000466106797725594
895,-0.000576019287109375,0.0000505357410411521
896,-0.000512599945068359,0.0000609913683818374
897,-0.000504493713378906,0.0000652831691365236
898,-0.000665187835693359,0.0000717017864174033
899,-0.000606536865234375,0.0000622560171518009
900,-0.000646114349365234,0.0000513115335455383
901,-0.000545501708984375,0.0000732174101285008
902,-0.000585079193115234,0.00006405611092666
903,-0.000729084014892578,0.0000718791487644126
904,-0.000538349151611328,0.0000685303091068467
905,-0.0006256103515625,0.0000693957811821991
906,-0.000613212585449219,0.000080537499584784
907,-0.000595569610595703,0.0000708372052198327
908,-0.00066375732421875,0.0000551216330032766
909,-0.000664710998535156,0.0000558530825208524
910,-0.000612735748291016,0.0000507825976775227
911,-0.000642299652099609,0.0000586790699830407
912,-0.000708103179931641,0.000054022724951187
913,-0.000709056854248047,0.0000476491325853724
914,-0.000576019287109375,0.0000473331438949484
915,-0.000699520111083984,0.0000545598401656639
916,-0.000575065612792969,0.0000445134574555835
917,-0.000695705413818359,0.000058226874160769
918,-0.00077056884765625,0.0000490980214168468
919,-0.000721454620361328,0.0000471526614871488
920,-0.00067901611328125,0.0000450718327034475
921,-0.000798702239990234,0.0000578045832739586
922,-0.000753879547119141,0.0000573048366858233
923,-0.000802993774414063,0.0000526035895176758
924,-0.000699996948242188,0.0000628792560570047
925,-0.000669002532958984,0.0000501586455038348
926,-0.000844478607177734,0.0000507579660393052
927,-0.000861644744873047,0.0000772991126532038
928,-0.000844001770019531,0.0000545264906269943
929,-0.000805854797363281,0.0000556522283475692
930,-0.000817298889160156,0.0000572472747910416
931,-0.000776290893554688,0.0000528622972561477
932,-0.000908374786376953,0.0000593647899224142
933,-0.000881671905517578,0.0000693597305720539
934,-0.000968456268310547,0.0000658294377939882
935,-0.00087738037109375,0.0000472056745125138
936,-0.000924587249755859,0.0000763356571613761
937,-0.00107002258300781,0.0000943487116690129
938,-0.000971794128417969,0.0000748133035944183
939,-0.00109148025512695,0.0000587903669014965
940,-0.000990867614746094,0.0000505863324453933
941,-0.00106716156005859,0.0000755798177303989
942,-0.0011444091796875,0.0000492379103375992
943,-0.00115823745727539,0.0000665661940254789
944,-0.00116825103759766,0.000085433730782421
945,-0.00114631652832031,0.0000860264981754245
946,-0.00121402740478516,0.0000979758226802019
947,-0.00117111206054687,0.0000806108694314366
948,-0.00141572952270508,0.000090496105121239
949,-0.00129365921020508,0.0000707247727891413
950,-0.00139427185058594,0.0000795189405995596
951,-0.00149679183959961,0.0000987064435219023
952,-0.00139999389648437,0.0000911619868006952
953,-0.00174236297607422,0.0000738097098193716
954,-0.00167655944824219,0.0000945268781753007
955,-0.00170183181762695,0.000103142423505742
956,-0.00176048278808594,0.000120859172832781
957,-0.00179004669189453,0.000124351232078912
958,-0.00173854827880859,0.000113519295405762
959,-0.00209283828735352,0.000100735729187967
960,-0.0020289421081543,0.0000816506187219118
961,-0.00196409225463867,0.000104821779664909
962,-0.0018610954284668,0.0000772726348121683
963,-0.00184726715087891,0.0000927200014479541
964,-0.00182676315307617,0.000171674621918767
965,-0.00190210342407227,0.000153236203980565
966,-0.00196981430053711,0.000148418198604283
967,-0.00186538696289062,0.000200448639144606
968,-0.00183677673339844,0.000185895563929224
969,-0.00175094604492187,0.000179751797696671
970,-0.00197649002075195,0.00017695220708609
971,-0.00187158584594727,0.000174452032693018
972,-0.00167369842529297,0.000140659687694692
973,-0.00154590606689453,0.000131738293215113
974,-0.00148296356201172,0.000106905146847468
975,-0.00152492523193359,0.000139115555417164
976,-0.00173234939575195,0.000182448639580812
977,-0.00138425827026367,0.000160667943661519
978,-0.00148153305053711,0.000133108475632615
979,-0.00149250030517578,0.000189539021628874
980,-0.00134468078613281,0.000156254232803768
981,-0.00157070159912109,0.000155346491485463
982,-0.00141096115112305,0.000162460876045436
983,-0.00126028060913086,0.000110327794962004
984,-0.00145864486694336,0.000147332650988213
985,-0.000955581665039063,0.000180433567677037
986,-0.00150585174560547,0.000131285315604217
987,-0.00133275985717773,0.000150311900332086
988,-0.0012507438659668,0.000175745384213096
989,-0.00126791000366211,0.000147202959446269
990,-0.00102853775024414,0.000203474857940993
991,-0.00106143951416016,0.00016214987614412
992,-0.00145053863525391,0.000152933206828316
993,-0.000945091247558594,0.000129762802484472
994,-0.000746726989746094,0.000225704712480057
995,-0.000537872314453125,0.000230572338534861
996,-0.000743389129638672,0.000214044121870024
997,-0.000846385955810547,0.000246697684350375
998,-0.000794887542724609,0.000190180927803252
999,-0.00103855133056641,0.000216196095509411
1000,-0.000701904296875,0.00024396174553405
1001,-0.000925064086914063,0.000213891099601133
1002,-0.00128459930419922,0.000141378799898937
1003,-0.000784873962402344,0.00017488421264145
1004,-0.000889778137207031,0.000262487486611286
1005,-0.000164508819580078,0.000300042369608513
1006,-0.000841617584228516,0.00021561477494788
1007,-0.00102376937866211,0.0002215441063894
1008,-0.00083160400390625,0.000211358843585223
1009,-0.000668048858642578,0.000276348423405073
1010,-0.000245571136474609,0.000281810357082227
1011,-0.000851154327392578,0.00022299670920024
1012,-0.000920772552490234,0.000175330889805319
1013,-0.000967025756835938,0.000232199622976659
1014,-0.000526905059814453,0.000227826387036667
1015,-0.000358104705810547,0.000197753516243915
1016,-0.0005340576171875,0.000205489707805314
1017,-0.000743865966796875,0.000415451882320515
1018,-0.000701427459716797,0.000319114873937445
1019,-0.00100803375244141,0.000277845119241793
1020,-0.000270843505859375,0.000199794200268211
1021,-0.000214576721191406,0.000233227483636975
1022,-0.000756263732910156,0.000274810483891021
1023,-0.000847339630126953,0.000273190657284407
1024,-0.00122451782226562,0.000274936217428246
1025,-0.000673770904541016,0.000233391209514378
1026,-0.000889301300048828,0.000277740351093558
1027,-0.000731945037841797,0.000232923115963527
1028,-0.00104570388793945,0.000348142071483852
1029,-0.000835895538330078,0.000414847231457895
1030,-0.000690937042236328,0.000224848819170023
1031,-0.000515937805175781,0.000335194477099818
1032,-0.000491142272949219,0.000476142377131401
1033,-0.000598430633544922,0.000341750891180802
1034,-0.000735282897949219,0.000286781775731866
1035,-0.00106334686279297,0.000347901645457364
1036,-0.000692844390869141,0.000334390365612963
1037,-0.000569343566894531,0.000400670349288967
1038,-0.000205039978027344,0.000369789598827446
1039,-0.000464439392089844,0.000275676218198353
1040,-0.00112247467041016,0.000368192398437917
1041,-0.00102663040161133,0.000472121765554723
1042,-0.000195503234863281,0.000414145081872459
1043,-0.000430107116699219,0.000462672615319829
1044,-0.00139474868774414,0.000699058235913873
1045,-0.00168275833129883,0.000767124143691981
1046,-0.000994205474853516,0.000561266301200852
1047,-0.00146341323852539,0.000685096689362709
1048,-0.0000858306884765625,0.000558446143561875
1049,-0.00122547149658203,0.000411801826263281
1050,-0.00138759613037109,0.000344533903261487
1051,-0.000716209411621094,0.00055858944344361
1052,-0.000790596008300781,0.00053183228210947
1053,-0.000377655029296875,0.000317532018288781
1054,-0.00187921524047852,0.000415565703556783
1055,-0.000871658325195313,0.000633021397461048
1056,-0.000275135040283203,0.000652402459004028
1057,0.000589370727539063,0.000506996085383183
1058,-0.000635147094726563,0.000469997950172773
1059,-0.000355720520019531,0.000813649083695989
1060,-0.00131750106811523,0.000635075493519799
1061,-0.000855922698974609,0.000714438925696379
1062,-0.000143051147460937,0.000769302536287045
1063,-0.000369548797607422,0.000658087797418723
1064,-0.000286102294921875,0.000793530387421862
1065,-0.00224447250366211,0.00077013437845468
1066,-0.00117683410644531,0.000745087623009667
1067,0.000345230102539062,0.00109733398804416
1068,-0.00123786926269531,0.00081338076811692
1069,-0.000450611114501953,0.00071799453262551
1070,-0.00211763381958008,0.00072525411260092
1071,-0.000553131103515625,0.00119423787735182
1072,-0.000774860382080078,0.00136372092679745
1073,-0.00000333786010742187,0.00138011930211536
1074,0.0000910758972167969,0.000993814666011583
1075,0.00148916244506836,0.000768678063907516
1076,0.000828742980957031,0.00118048702234685
1077,-0.000653743743896484,0.00112030066706049
1078,-0.000410079956054688,0.000973682328651445
1079,0.00168275833129883,0.00118825217474153
1080,-0.000571250915527344,0.00133940968975664
1081,0.00000476837158203125,0.0011328815981739
1082,-0.000428199768066406,0.00127616305568603
1083,-0.000664234161376953,0.000942809201169336
1084,0.00113630294799805,0.00172032273468798
1085,-0.000245571136474609,0.00120958991593057
1086,-0.00295162200927734,0.000904574039695518
1087,-0.00210809707641602,0.00154547505897805
1088,-0.004180908203125,0.00165777456319261
1089,0.000341892242431641,0.00161559522488825
1090,-0.000345230102539062,0.00200616811513911
1091,-0.00241422653198242,0.00172066105456671
1092,0.00102472305297852,0.00169509969421636
1093,-0.00131320953369141,0.00187319892568452
1094,-0.00557804107666016,0.00243596424115021
1095,-0.00000143051147460937,0.00179862874942237
1096,-0.00593376159667969,0.00163678520313548
1097,-0.0044102668762207,0.00175369893996203
1098,-0.000667095184326172,0.00221447036932938
1099,0.000026702880859375,0.00247032207822541
1100,0.00303411483764648,0.00267486180567958
