Wavelength (nm),Absorbance (AU),Std.Dev.
190,0.0859799385070801,0.0000538351052198949
191,0.0816502571105957,0.0000460104619104635
192,0.0772604942321777,0.0000581799957573339
193,0.0731339454650879,0.0000408566253900942
194,0.0693044662475586,0.0000309989999168031
195,0.0655303001403809,0.0000361115614739351
196,0.0619907379150391,0.0000354538928930103
197,0.0586633682250977,0.0000415142820778686
198,0.0555477142333984,0.0000333598629262307
199,0.0524477958679199,0.000024612604795097
200,0.049006462097168,0.00003057898363681
201,0.0456161499023438,0.0000317956003943859
202,0.0425763130187988,0.0000319507583528349
203,0.0400586128234863,0.0000319898744878927
204,0.0380449295043945,0.0000440268166366086
205,0.0363812446594238,0.0000501756417133372
206,0.0349912643432617,0.0000396979463511281
207,0.0337114334106445,0.0000344091785930988
208,0.032538890838623,0.0000361540373499873
209,0.0315542221069336,0.0000339710919711469
210,0.0306177139282227,0.0000492055747142258
211,0.0296788215637207,0.0000423473278758031
212,0.028836727142334,0.0000371359419563051
213,0.0279502868652344,0.0000369256426919587
214,0.0272202491760254,0.0000316351897807392
215,0.0265307426452637,0.0000299933983884979
216,0.0258197784423828,0.0000318759488037132
217,0.0251426696777344,0.0000333794525582835
218,0.0245518684387207,0.000035655337087482
219,0.023953914642334,0.0000289769315439442
220,0.0233697891235352,0.000026229836449772
221,0.022822380065918,0.0000309439394827212
222,0.0221929550170898,0.0000325570150888789
223,0.0216503143310547,0.000034437250873045
224,0.0211386680603027,0.0000314965291097102
225,0.0206012725830078,0.0000287815764519346
226,0.0200843811035156,0.0000277017355886036
227,0.0195145606994629,0.0000371428293988464
228,0.0189952850341797,0.0000409455711387773
229,0.0185198783874512,0.0000345048606436778
230,0.0180411338806152,0.0000413063198618082
231,0.0175943374633789,0.0000416134342751912
232,0.0171880722045898,0.0000347249110048438
233,0.0166630744934082,0.0000461929459679399
234,0.0162563323974609,0.0000269918895140554
235,0.0158452987670898,0.0000292565924400988
236,0.0154590606689453,0.0000310878080197279
237,0.0152616500854492,0.0000298142409334178
238,0.0150461196899414,0.0000249001925941199
239,0.0147686004638672,0.0000238150207155844
240,0.0146636962890625,0.0000255786581174209
241,0.0145268440246582,0.0000343513104863776
242,0.0143465995788574,0.0000322456170324263
243,0.0141735076904297,0.0000235552247176788
244,0.0141000747680664,0.0000256978290642505
245,0.0139799118041992,0.0000271546097276761
246,0.0138683319091797,0.0000298185304436815
247,0.0137887001037598,0.0000289739888770228
248,0.0136938095092773,0.0000230077017135844
249,0.0135631561279297,0.0000215373282641768
250,0.0134181976318359,0.0000154572669099906
251,0.0132980346679687,0.0000181170668530262
252,0.0132403373718262,0.0000280625858555058
253,0.0131106376647949,0.000024864211701362
254,0.0130062103271484,0.0000283788223578768
255,0.0128393173217773,0.0000212055199359303
256,0.0127768516540527,0.0000258555028477988
257,0.0126762390136719,0.0000329432019222562
258,0.0124859809875488,0.0000405164299177664
259,0.0124783515930176,0.0000303063683398875
260,0.0123629570007324,0.000035679242780471
261,0.0122113227844238,0.000035084814883804
262,0.0121216773986816,0.000037296317552043
263,0.0120325088500977,0.0000357572233323024
264,0.0119071006774902,0.000030035536935944
265,0.0117740631103516,0.0000266085175013715
266,0.0116324424743652,0.0000319285119266422
267,0.0115218162536621,0.0000401103388668988
268,0.0114727020263672,0.0000339627245008924
269,0.0113658905029297,0.0000485683867951758
270,0.0111575126647949,0.0000494843490175014
271,0.0110764503479004,0.0000456171445583397
272,0.010960578918457,0.0000599877443683484
273,0.0108504295349121,0.0000509937156834695
274,0.010777473449707,0.0000472249372216093
275,0.0106806755065918,0.0000402645147658469
276,0.0104660987854004,0.0000373541885573259
277,0.0103721618652344,0.0000422411519497369
278,0.0102481842041016,0.000030987995656635
279,0.0101203918457031,0.0000283743151994027
280,0.0100030899047852,0.0000351244866575296
281,0.00990915298461914,0.0000389827136026321
282,0.00975799560546875,0.0000444316546736205
283,0.00965642929077148,0.0000425047571649699
284,0.00950193405151367,0.0000330672043754307
285,0.00942897796630859,0.0000249583373962723
286,0.00932836532592773,0.0000262054449162273
287,0.0091395378112793,0.0000323889687251109
288,0.00894880294799805,0.0000285893602551641
289,0.00883579254150391,0.0000330586081228157
290,0.00877141952514648,0.000042829825706593
291,0.00864219665527344,0.000028108124781749
292,0.00855875015258789,0.0000390621030217354
293,0.00840950012207031,0.000061415811497755
294,0.00829124450683594,0.0000399434735668439
295,0.00819253921508789,0.0000361280858042863
296,0.00814914703369141,0.0000310923788823847
297,0.00800561904907227,0.0000321440947085605
298,0.00783300399780273,0.0000413757567402816
299,0.00777721405029297,0.000042146848510894
300,0.00770187377929688,0.0000331573304743746
301,0.00758743286132813,0.0000284173543815407
302,0.00748395919799805,0.0000387281609434437
303,0.00734519958496094,0.0000344289966961634
304,0.00736713409423828,0.0000423090546259983
305,0.00728225708007813,0.0000407793356833205
306,0.007110595703125,0.0000314278737130815
307,0.0070490837097168,0.0000425802499755971
308,0.00701713562011719,0.0000503498043129694
309,0.00695991516113281,0.0000472754644902538
310,0.00689840316772461,0.0000394011498881381
311,0.00680875778198242,0.0000353672084286006
312,0.00665760040283203,0.0000415621781883613
313,0.0066065788269043,0.0000382503955281294
314,0.00658464431762695,0.000034903698271456
315,0.00643348693847656,0.000043714551985153
316,0.00638008117675781,0.0000391783465641213
317,0.00633430480957031,0.000029519647882998
318,0.00625181198120117,0.0000341463352012027
319,0.00615024566650391,0.0000388995091238271
320,0.00606870651245117,0.0000383698390470292
321,0.00611591339111328,0.000054219131769197
322,0.00588798522949219,0.0000459065671864669
323,0.00588369369506836,0.0000401818425326962
324,0.00583124160766602,0.0000425722393932713
325,0.0056915283203125,0.0000368285326538777
326,0.00561857223510742,0.0000504377871015036
327,0.00562715530395508,0.0000385066303509432
328,0.00553989410400391,0.0000410114608453838
329,0.00539684295654297,0.0000429444744003237
330,0.00536727905273438,0.0000577701549950817
331,0.00527477264404297,0.0000393238905334839
332,0.00528526306152344,0.0000406809451305346
333,0.00516986846923828,0.000047124926398394
334,0.00509214401245117,0.0000335442316404728
335,0.00500106811523438,0.0000409268252320093
336,0.00496053695678711,0.0000649006728592691
337,0.00492429733276367,0.0000465362285940649
338,0.00483989715576172,0.0000553326325659718
339,0.00491523742675781,0.0000576411123453931
340,0.00474452972412109,0.0000476324282439001
341,0.00465250015258789,0.0000428012815584548
342,0.00455760955810547,0.0000354346480046915
343,0.00457382202148438,0.0000406620772268747
344,0.00459384918212891,0.0000354258239369096
345,0.00446891784667969,0.0000515160706942349
346,0.00454282760620117,0.0000455809934003476
347,0.00437593460083008,0.0000635840492816879
348,0.00426959991455078,0.0000472658444129318
349,0.00422191619873047,0.0000386208662630398
350,0.00425100326538086,0.0000525040802326233
351,0.00411224365234375,0.000066161907466707
352,0.00408649444580078,0.0000740496020042578
353,0.00400447845458984,0.0000509513389360192
354,0.00391483306884766,0.0000355819261463847
355,0.0038604736328125,0.0000460116973393933
356,0.00386428833007812,0.0000506234006751884
357,0.00385475158691406,0.0000402941506042907
358,0.00386285781860352,0.0000403709611673674
359,0.0037684440612793,0.0000430442939048608
360,0.00376224517822266,0.0000383861316585804
361,0.00372552871704102,0.0000380843363556775
362,0.00360345840454102,0.0000519216330915417
363,0.00356674194335937,0.0000706926163935584
364,0.00353860855102539,0.0000739343663753923
365,0.00348758697509766,0.00004492529833036
366,0.00338459014892578,0.000044912643672964
367,0.00339984893798828,0.0000450226200545505
368,0.00341606140136719,0.0000506626858273515
369,0.00330829620361328,0.0000484418209547481
370,0.00339174270629883,0.0000555581796946192
371,0.00333499908447266,0.0000805530257023221
372,0.0033116340637207,0.0000659243538642734
373,0.00326061248779297,0.0000592334633949807
374,0.00326299667358398,0.0000514111397480143
375,0.00303268432617187,0.0000672931951992726
376,0.00308132171630859,0.000055614423552297
377,0.00305080413818359,0.0000591864218441709
378,0.00300216674804687,0.0000608672873362369
379,0.00308132171630859,0.0000630201236825741
380,0.00297117233276367,0.0000914458803634761
381,0.00294971466064453,0.0000837198955996307
382,0.00303506851196289,0.0000840735716411748
383,0.00291919708251953,0.0000791937376927663
384,0.00282573699951172,0.0000660535650671497
385,0.00282955169677734,0.0000735798517664911
386,0.00287246704101562,0.0000616781076545051
387,0.00279951095581055,0.0000977806885452742
388,0.00281381607055664,0.0000859894872959126
389,0.00264310836791992,0.0000545108510072066
390,0.00272035598754883,0.0000416878141047415
391,0.00255823135375977,0.000058629644595126
392,0.00266027450561523,0.0000963659465394933
393,0.00260686874389648,0.0000747357634420295
394,0.00259637832641602,0.0000662889406433374
395,0.00258970260620117,0.000073471616483495
396,0.00245809555053711,0.0000686413672834003
397,0.00245571136474609,0.0000797886930506764
398,0.00238943099975586,0.0000653910493904588
399,0.00240659713745117,0.0000590575862566483
400,0.00229549407958984,0.0000536203331393947
401,0.00235176086425781,0.0000802348482445392
402,0.00248622894287109,0.0000565177766677374
403,0.00232315063476562,0.0000594231703936553
404,0.00227689743041992,0.0000856158428618145
405,0.00230503082275391,0.0000694727357215296
406,0.00218057632446289,0.0000735659447224041
407,0.00218963623046875,0.0000604117113194066
408,0.00223445892333984,0.0000523577188003959
409,0.00209283828735352,0.0000621993817305815
410,0.00200700759887695,0.0000660191334733448
411,0.00209712982177734,0.0000528988452017609
412,0.00210714340209961,0.0000529901047827441
413,0.00204372406005859,0.0000477849362837145
414,0.00200796127319336,0.0000584675082712721
415,0.00191736221313477,0.0000883500892923497
416,0.0018916130065918,0.0000717572592431416
417,0.0017857551574707,0.0000653145075665883
418,0.00187301635742187,0.0000581819497782503
419,0.00185585021972656,0.0000478336836965882
420,0.00176477432250977,0.0000658553375619942
421,0.00184154510498047,0.0000587439381740953
422,0.00166654586791992,0.0000537759434238466
423,0.0016942024230957,0.0000531732230933634
424,0.00157308578491211,0.0000828160585035877
425,0.00172996520996094,0.0000887711487112313
426,0.00165367126464844,0.0000526079117385876
427,0.00178813934326172,0.000053043713546209
428,0.00152873992919922,0.0000582278503928469
429,0.00163078308105469,0.0000473391481246599
430,0.00151491165161133,0.0000454886154259627
431,0.00149297714233398,0.0000616172510953798
432,0.00156879425048828,0.0000556563138143452
433,0.0015106201171875,0.0000503746355300382
434,0.00132942199707031,0.0000519719691509556
435,0.00129938125610352,0.0000541446440964138
436,0.00133419036865234,0.0000726030572207566
437,0.00142097473144531,0.0000595397596051196
438,0.00141477584838867,0.000063494587480225
439,0.00128412246704102,0.0000517505636317916
440,0.00139188766479492,0.0000554198845892625
441,0.00128698348999023,0.0000525246465099048
442,0.00124931335449219,0.0000540837188786002
443,0.00120735168457031,0.000047153866990517
444,0.00128507614135742,0.0000309154531703099
445,0.00124120712280273,0.0000378387636461081
446,0.00114727020263672,0.0000396678650913417
447,0.00108671188354492,0.0000523218792890366
448,0.00115442276000977,0.0000549450086513553
449,0.00122785568237305,0.00004370154673333
450,0.00107765197753906,0.0000530672842455891
451,0.00117635726928711,0.0000533855348839289
452,0.00107145309448242,0.0000403117806403138
453,0.000967979431152344,0.0000503068851601935
454,0.00118255615234375,0.0000504005823582604
455,0.000875473022460938,0.0000522425105941784
456,0.000954151153564453,0.0000885762724709285
457,0.000932216644287109,0.0000725325589125705
458,0.000994682312011719,0.0000505829612593281
459,0.000756263732910156,0.0000760536582262838
460,0.000791549682617188,0.0000755301629607053
461,0.000800609588623047,0.0000537928534335955
462,0.000746250152587891,0.0000612805321747488
463,0.000836372375488281,0.0000541467437433015
464,0.0007476806640625,0.0000473199319078647
465,0.000689029693603516,0.0000524401651184297
466,0.000689506530761719,0.0000504118594224514
467,0.000662803649902344,0.0000577386597467301
468,0.000680923461914063,0.0000474039453464104
469,0.000729084014892578,0.0000468199701510819
470,0.000763893127441406,0.0000688645972087218
471,0.000619411468505859,0.0000486245325334491
472,0.000627517700195313,0.0000489205643965576
473,0.000576972961425781,0.0000437288532947936
474,0.000688076019287109,0.0000484159984610666
475,0.000615596771240234,0.0000493555252414668
476,0.000586032867431641,0.0000631858715782865
477,0.000601291656494141,0.0000547636629444765
478,0.000458240509033203,0.0000632020627051578
479,0.000427722930908203,0.000047286284737847
480,0.000454425811767578,0.0000373450569921901
481,0.000517845153808594,0.0000372589583243903
482,0.000533103942871094,0.0000473211331500279
483,0.000447750091552734,0.0000505672260860193
484,0.000433444976806641,0.0000595426236770651
485,0.00103187561035156,0.0000526413969178667
486,-0.000163555145263672,0.0000484781838498643
487,0.000434398651123047,0.0000645511423305016
488,0.000285148620605469,0.00005851998472905
489,0.000407218933105469,0.000074267291716488
490,0.000275135040283203,0.0000519249173654214
491,0.000253677368164062,0.0000508977599817759
492,0.000355720520019531,0.0000505379906234293
493,0.000296115875244141,0.000049655212581424
494,0.000258922576904297,0.0000507467658877888
495,0.000260829925537109,0.0000507848363249561
496,0.000168800354003906,0.000052939663046843
497,0.000297069549560547,0.0000519435243283233
498,0.000309944152832031,0.0000563596508678146
499,0.000174999237060547,0.0000651297419699244
500,0.000119686126708984,0.0000534600169611244
501,0.0000615119934082031,0.0000592843030503333
502,0.0000739097595214844,0.0000533983106183693
503,0.000184059143066406,0.0000591153085479959
504,0.000120162963867187,0.0000629750081149725
505,0.000202178955078125,0.0000520703120100391
506,0.0000829696655273438,0.0000656911332390993
507,0.000102519989013672,0.0000769408929883192
508,0.0000548362731933594,0.0000608906301381014
509,0.0000348091125488281,0.000075944457673309
510,0.0000638961791992188,0.0000518822055885706
511,0.0000376701354980469,0.0000582785919264808
512,0.0000290870666503906,0.0000720355608082941
513,-0.0001220703125,0.0000822333295042659
514,0.0000872611999511719,0.0000519216330915417
515,-0.0000386238098144531,0.0000538804889367124
516,0.00000810623168945313,0.0000669697375544936
517,-0.0000638961791992188,0.0000727985276446636
518,-0.0000982284545898438,0.0000610928709621724
519,-0.000141620635986328,0.0000595416690017241
520,0.00000333786010742187,0.0000587236140629115
521,-0.000201702117919922,0.0000533407957164016
522,-0.000157833099365234,0.0000719344848159565
523,-0.000136375427246094,0.0000780455853424698
524,-0.000149726867675781,0.0000667146138173734
525,-0.000156402587890625,0.0000681443510026849
526,-0.000155925750732422,0.0000606389897612745
527,-0.000151634216308594,0.0000563445200829338
528,-0.000111103057861328,0.0000504355330498366
529,-0.000181198120117187,0.0000580263997918284
530,-0.000139713287353516,0.000072293923006973
531,-0.000234603881835937,0.0000666105840133475
532,-0.000303745269775391,0.0000505492370331249
533,-0.000213623046875,0.0000511961916911
534,-0.000201225280761719,0.0000648971693545642
535,-0.000284671783447266,0.0000675966077677511
536,-0.000225543975830078,0.0000479417020788573
537,-0.000292778015136719,0.0000493785541365429
538,-0.000287532806396484,0.0000450730938596995
539,-0.000266551971435547,0.0000637875530339316
540,-0.000230312347412109,0.0000611133372745306
541,-0.000288963317871094,0.000051958842706273
542,-0.000332355499267578,0.0000570323953034866
543,-0.000371932983398437,0.0000580802535193829
544,-0.000313282012939453,0.0000516119782090862
545,-0.000352859497070312,0.0000518186203998799
546,-0.000286102294921875,0.0000630183196800065
547,-0.000239849090576172,0.0000544753845791596
548,-0.000287055969238281,0.0000388907404024194
549,-0.000454425811767578,0.0000454773674681334
550,-0.000430583953857422,0.0000445134574555835
551,-0.000364780426025391,0.0000568856937103529
552,-0.000396251678466797,0.0000320191802295676
553,-0.00035858154296875,0.000024847059629808
554,-0.000378131866455078,0.0000323959880606704
555,-0.000429153442382813,0.0000495979414353089
556,-0.000416278839111328,0.0000435973650564767
557,-0.000357151031494141,0.0000330310850807894
558,-0.000384330749511719,0.000038634110478269
559,-0.000318527221679687,0.0000513281480024434
560,-0.000411033630371094,0.0000491257996490079
561,-0.000518321990966797,0.0000383824293996037
562,-0.000544548034667969,0.0000405984208225885
563,-0.000379562377929687,0.0000382749081106767
564,-0.000497341156005859,0.000035015078200809
565,-0.000533103942871094,0.0000381581468905344
566,-0.000544548034667969,0.0000419189766960521
567,-0.000522136688232422,0.0000377379784320608
568,-0.000535964965820313,0.0000317607196250951
569,-0.000554561614990234,0.0000376565522439551
570,-0.000495433807373047,0.000035336657766622
571,-0.000600337982177734,0.0000348906672094855
572,-0.000641345977783203,0.0000305873475644757
573,-0.000427722930908203,0.00003155783101611
574,-0.000542163848876953,0.0000368347059821118
575,-0.000439643859863281,0.0000322922981375052
576,-0.000455379486083984,0.0000338780972048103
577,-0.000501155853271484,0.0000320998544185152
578,-0.000528335571289063,0.0000253996925642957
579,-0.000499248504638672,0.0000322922981375052
580,-0.000493049621582031,0.0000272053254947841
581,-0.000412940979003906,0.0000227117943908535
582,-0.000580787658691406,0.0000233820444487485
583,-0.000588893890380859,0.0000260127672137944
584,-0.000447273254394531,0.0000311006047422797
585,-0.000578403472900391,0.0000466411582167845
586,-0.000674724578857422,0.0000375090850358131
587,-0.00051116943359375,0.0000313726600334573
588,-0.000624179840087891,0.0000330517295109803
589,-0.000574111938476563,0.0000278516375727535
590,-0.000594615936279297,0.0000323494565831866
591,-0.000644683837890625,0.0000331967372109743
592,-0.000530242919921875,0.0000237175562199514
593,-0.000608444213867188,0.0000307643125070666
594,-0.000574111938476563,0.0000302119711100985
595,-0.000620365142822266,0.0000298333007026226
596,-0.00063323974609375,0.0000340538189955157
597,-0.000583171844482422,0.00004366771495172
598,-0.000580310821533203,0.0000389761512858196
599,-0.000540256500244141,0.0000349907187528771
600,-0.000509262084960938,0.0000213414595007517
601,-0.000601768493652344,0.0000189332725694997
602,-0.000604152679443359,0.0000252160758917203
603,-0.000629901885986328,0.0000284927658918902
604,-0.000647068023681641,0.0000268069860528619
605,-0.000603199005126953,0.0000317329665351226
606,-0.000636100769042969,0.0000321714931362782
607,-0.000580310821533203,0.0000307458298904947
608,-0.000637531280517578,0.0000353792606383315
609,-0.000689506530761719,0.0000237361232310354
610,-0.000637531280517578,0.0000182588787064989
611,-0.000676155090332031,0.0000217418920806465
612,-0.000646591186523438,0.0000272882536465158
613,-0.000615596771240234,0.000027037129406614
614,-0.000726699829101563,0.0000247972515317079
615,-0.000753402709960938,0.0000312628492606278
616,-0.000794410705566406,0.000029987712256489
617,-0.000673294067382813,0.0000343926547837551
618,-0.000615596771240234,0.0000426162789624202
619,-0.000620365142822266,0.0000316199129401514
620,-0.000561237335205078,0.0000304830997130808
621,-0.000674247741699219,0.0000303925246810483
622,-0.000612258911132813,0.0000254382680289252
623,-0.000737190246582031,0.0000283487610991046
624,-0.000699043273925781,0.0000401860862716881
625,-0.000718116760253906,0.0000444802432195383
626,-0.000703334808349609,0.0000362545221223293
627,-0.000658035278320313,0.0000367133647058871
628,-0.00069427490234375,0.0000384601019966919
629,-0.000691413879394531,0.0000393686761100598
630,-0.000765323638916016,0.0000288703143515277
631,-0.000738620758056641,0.0000267725062354154
632,-0.000672340393066406,0.0000262536640375535
633,-0.000703334808349609,0.0000357913856597809
634,-0.000767707824707031,0.0000405879184241453
635,-0.000725269317626953,0.0000389805262864454
636,-0.000722885131835938,0.0000316190140726097
637,-0.000783920288085938,0.0000260018388567126
638,-0.000822544097900391,0.0000272470818993811
639,-0.000822067260742188,0.000040355469893958
640,-0.0007171630859375,0.0000347478209391959
641,-0.000657558441162109,0.000036697878408026
642,-0.000670909881591797,0.0000447160385303504
643,-0.000561237335205078,0.0000527568115137809
644,-0.000598907470703125,0.0000466557807978366
645,-0.000783920288085938,0.0000462753203697647
646,-0.000760078430175781,0.0000401131731192247
647,-0.000788211822509766,0.0000543876624858867
648,-0.000711917877197266,0.0000427348260925447
649,-0.000746250152587891,0.0000461239828536587
650,-0.000796318054199219,0.0000423889191911063
651,-0.000792026519775391,0.0000303035547699664
652,-0.000773906707763672,0.0000424096995529894
653,-0.000755786895751953,0.000044214916730227
654,-0.000726222991943359,0.0000395279022239611
655,-0.000215530395507812,0.0000226917630375127
656,-0.0013127326965332,0.000029433833370079
657,-0.00154018402099609,0.0000311836554376142
658,-0.000811576843261719,0.0000378650439578004
659,-0.000894069671630859,0.0000220463070143128
660,-0.0008087158203125,0.0000222043102457432
661,-0.000791072845458984,0.000026811756686633
662,-0.000775337219238281,0.0000353583675305381
663,-0.000838756561279297,0.000033514563352214
664,-0.000829696655273438,0.000034438901471022
665,-0.000861167907714844,0.0000359980474438523
666,-0.000888347625732422,0.0000313218863754833
667,-0.000865936279296875,0.0000354458754593597
668,-0.000818252563476563,0.0000368262173889901
669,-0.000876426696777344,0.0000378049478298449
670,-0.000811576843261719,0.0000449531260370369
671,-0.000798702239990234,0.0000460129327351524
672,-0.000812053680419922,0.0000431728584233879
673,-0.000828742980957031,0.000027946379970187
674,-0.000925540924072266,0.0000227655413171622
675,-0.000898361206054688,0.0000175650751982948
676,-0.000832557678222656,0.0000311398760811042
677,-0.000872135162353516,0.0000434157548526384
678,-0.000906467437744141,0.0000445683343717496
679,-0.000848293304443359,0.0000330362473977829
680,-0.000837802886962891,0.0000338041898195893
681,-0.000811576843261719,0.000030059657120656
682,-0.000805377960205078,0.0000312792091561188
683,-0.000850677490234375,0.00002359199728246
684,-0.000823497772216797,0.000034443852790359
685,-0.000859260559082031,0.0000382986629046536
686,-0.000879764556884766,0.000042705552926173
687,-0.000893592834472656,0.00002869702128699
688,-0.0008697509765625,0.0000279255235107854
689,-0.000869274139404297,0.000046709357763895
690,-0.000855922698974609,0.0000358913019856292
691,-0.000892162322998047,0.0000318946676410497
692,-0.000837802886962891,0.0000409962115988479
693,-0.000834465026855469,0.0000526165551152562
694,-0.000865459442138672,0.0000383964960845898
695,-0.000864982604980469,0.0000270828184513805
696,-0.0009613037109375,0.0000365294300223459
697,-0.000860691070556641,0.0000314667366140249
698,-0.000914096832275391,0.0000401867935179508
699,-0.000879287719726563,0.0000386186584522433
700,-0.00087738037109375,0.0000359530157969366
701,-0.000860214233398438,0.0000420557127849956
702,-0.000919818878173828,0.0000348955544279816
703,-0.000838756561279297,0.00003515683859094
704,-0.000898838043212891,0.0000289062248580552
705,-0.000886440277099609,0.0000341271857767249
706,-0.000883102416992188,0.0000373024134647307
707,-0.000890254974365234,0.0000401684010680539
708,-0.000936031341552734,0.0000463366983848703
709,-0.000886440277099609,0.0000483384482135326
710,-0.000920772552490234,0.0000377289397560063
711,-0.0009002685546875,0.0000409052915597328
712,-0.000946044921875,0.0000466496886127568
713,-0.000946044921875,0.0000478503177806934
714,-0.000919818878173828,0.0000387288948135645
715,-0.000951766967773438,0.0000281525805065228
716,-0.000938892364501953,0.0000283858320708052
717,-0.000921726226806641,0.0000382548535296046
718,-0.000943183898925781,0.0000333751949207251
719,-0.000962734222412109,0.0000289936010151043
720,-0.0009918212890625,0.000038514010634739
721,-0.000987529754638672,0.0000494843490175014
722,-0.000967502593994141,0.0000396893540319153
723,-0.000936985015869141,0.0000406250147471321
724,-0.000931739807128906,0.0000436729215470588
725,-0.00100994110107422,0.0000566734553323785
726,-0.00107192993164062,0.0000366746367001016
727,-0.000970840454101563,0.0000283863326983495
728,-0.000950813293457031,0.0000412071184167257
729,-0.000910758972167969,0.0000520484740993277
730,-0.000977039337158203,0.0000395070448791107
731,-0.00102329254150391,0.0000355331678820826
732,-0.000958442687988281,0.0000463734862000054
733,-0.00102138519287109,0.0000338739022423498
734,-0.00091552734375,0.0000287845387893421
735,-0.001007080078125,0.000034795229246498
736,-0.00103521347045898,0.0000302725882420705
737,-0.00109100341796875,0.0000385862627138357
738,-0.00112533569335937,0.0000349411355037645
739,-0.00107669830322266,0.0000299810770728131
740,-0.00101900100708008,0.0000317848719269583
741,-0.00102424621582031,0.0000320120782709065
742,-0.00105524063110352,0.000040796059378641
743,-0.00109720230102539,0.0000352633893861472
744,-0.00109100341796875,0.0000373146023025235
745,-0.00114154815673828,0.0000347216369230899
746,-0.00105905532836914,0.0000506211548884972
747,-0.00105190277099609,0.0000370761971932252
748,-0.00113821029663086,0.0000470778599915385
749,-0.00106382369995117,0.0000441299844796175
750,-0.00110197067260742,0.0000466033619799447
751,-0.00113201141357422,0.0000389155799814116
752,-0.00109481811523437,0.0000337722252663652
753,-0.00111055374145508,0.000031865247388191
754,-0.00106906890869141,0.0000449101123135891
755,-0.00108528137207031,0.0000383683575574614
756,-0.00108766555786133,0.0000342269779458016
757,-0.00104045867919922,0.0000400450956982532
758,-0.00110816955566406,0.0000393852771640951
759,-0.00110673904418945,0.0000425528742602781
760,-0.00107717514038086,0.0000348670359964265
761,-0.0010833740234375,0.0000435255955018769
762,-0.00109052658081055,0.0000338789361349709
763,-0.0010685920715332,0.0000357142755185888
764,-0.00109386444091797,0.0000383964960845898
765,-0.00112819671630859,0.0000421973944197365
766,-0.00111722946166992,0.0000335060818733101
767,-0.00112485885620117,0.0000271514695588622
768,-0.00107955932617187,0.0000433187597171594
769,-0.00104236602783203,0.000041329707678222
770,-0.00108957290649414,0.0000396427799384044
771,-0.00108575820922852,0.0000375711674102688
772,-0.0011754035949707,0.0000432728079064987
773,-0.00113821029663086,0.0000456570022719796
774,-0.00104665756225586,0.0000413228302827707
775,-0.00113821029663086,0.0000486782780984665
776,-0.00116777420043945,0.0000319151566276404
777,-0.00112295150756836,0.0000272011463288169
778,-0.00115680694580078,0.0000421481971884679
779,-0.00105190277099609,0.0000365986109304176
780,-0.00107908248901367,0.0000428822177615284
781,-0.00107812881469727,0.0000435947573246171
782,-0.00106525421142578,0.0000512428033079394
783,-0.00119972229003906,0.000032881025329703
784,-0.00112104415893555,0.0000322553111194012
785,-0.00114011764526367,0.0000370769637609363
786,-0.00111961364746094,0.0000552894689746296
787,-0.00108766555786133,0.0000447922461159415
788,-0.00119352340698242,0.0000389396738316085
789,-0.00106287002563477,0.0000610463310979012
790,-0.00120401382446289,0.0000566895010448552
791,-0.00107192993164062,0.0000556409917671769
792,-0.00111007690429687,0.0000432031306934288
793,-0.00110769271850586,0.0000442624589743567
794,-0.00113058090209961,0.0000380806047556768
795,-0.00118541717529297,0.0000504749644213982
796,-0.00117063522338867,0.0000413221424802709
797,-0.00115537643432617,0.0000362615769801619
798,-0.00117206573486328,0.0000462728635557485
799,-0.001190185546875,0.0000334466512999538
800,-0.00123310089111328,0.0000310448090151155
801,-0.00111579895019531,0.0000350767130906274
802,-0.00115060806274414,0.0000464359585996229
803,-0.00113868713378906,0.0000390635582009421
804,-0.00122451782226562,0.0000520790446103286
805,-0.00113534927368164,0.0000398187579199115
806,-0.00115871429443359,0.0000344900308277643
807,-0.00121259689331055,0.0000386855726565777
808,-0.00107431411743164,0.0000470198674303987
809,-0.00124645233154297,0.000036914865303156
810,-0.00122451782226562,0.0000368709534115282
811,-0.00124263763427734,0.0000289008165410722
812,-0.00118923187255859,0.0000389586463702531
813,-0.00114679336547852,0.0000377899088651995
814,-0.00117778778076172,0.000044374046799209
815,-0.00116205215454102,0.0000416134342751912
816,-0.0013127326965332,0.0000416373321892239
817,-0.00123834609985352,0.0000407793356833205
818,-0.00124692916870117,0.0000396922183449874
819,-0.00123262405395508,0.0000456781625364333
820,-0.00117349624633789,0.000040280041019642
821,-0.00124120712280273,0.0000363469104291416
822,-0.00124740600585937,0.0000297498240610391
823,-0.00124645233154297,0.0000409927450698682
824,-0.00118398666381836,0.0000381789967108579
825,-0.00124502182006836,0.0000411960812882522
826,-0.00127744674682617,0.0000349769075351483
827,-0.00121784210205078,0.0000475894472992943
828,-0.00128936767578125,0.0000543196850711307
829,-0.00120306015014648,0.0000468648697634369
830,-0.00128459930419922,0.000051219502801804
831,-0.00128841400146484,0.0000654431856700812
832,-0.00134134292602539,0.000051220612590067
833,-0.00127840042114258,0.000039419179316407
834,-0.00133371353149414,0.0000349232357475291
835,-0.00133895874023437,0.0000437717291881689
836,-0.00135421752929687,0.0000418965962152267
837,-0.00124311447143555,0.0000418864193162753
838,-0.00132226943969727,0.0000391543995826266
839,-0.00131702423095703,0.0000301101994201376
840,-0.00132322311401367,0.0000262455434265567
841,-0.00130558013916016,0.0000502888029795635
842,-0.00128173828125,0.0000511773130149541
843,-0.00133991241455078,0.0000379909363966562
844,-0.00137424468994141,0.0000363609829251566
845,-0.0012974739074707,0.0000496231488828571
846,-0.00127744674682617,0.0000592373018723456
847,-0.00130796432495117,0.0000353615826583038
848,-0.00128746032714844,0.0000319329624517368
849,-0.0013127326965332,0.0000319017957376055
850,-0.00129079818725586,0.0000371833629053564
851,-0.00125741958618164,0.0000613676640126235
852,-0.00124979019165039,0.0000494314798802412
853,-0.00135993957519531,0.0000516912153752564
854,-0.00133228302001953,0.00004815819234067
855,-0.0013880729675293,0.0000418504411200075
856,-0.00123453140258789,0.0000474147362741264
857,-0.00132131576538086,0.0000485976374613916
858,-0.00128841400146484,0.0000425448585235009
859,-0.00130987167358398,0.0000484922524887626
860,-0.00135278701782227,0.0000558357784116947
861,-0.00133705139160156,0.0000412188421274869
862,-0.00127696990966797,0.0000568747008228891
863,-0.00134181976318359,0.0000445963848209914
864,-0.00136518478393555,0.0000448923888013446
865,-0.00137042999267578,0.0000566513850570418
866,-0.00133895874023437,0.000059552169588738
867,-0.00133228302001953,0.0000423426295155219
868,-0.00128841400146484,0.0000526867299862944
869,-0.00122547149658203,0.0000537928534335955
870,-0.0012965202331543,0.00004968839959991
871,-0.00145101547241211,0.0000418857407684283
872,-0.00142288208007812,0.0000428085853615088
873,-0.00138616561889648,0.0000517549570916545
874,-0.00131464004516602,0.0000470065673917733
875,-0.00138521194458008,0.0000574247369602438
876,-0.00140619277954102,0.0000389601054136171
877,-0.00143337249755859,0.0000402468640251335
878,-0.00141096115112305,0.0000429920993634648
879,-0.00131702423095703,0.0000543667554110441
880,-0.00138187408447266,0.0000593762791406218
881,-0.00139760971069336,0.0000498540033123717
882,-0.00133657455444336,0.0000374772469190535
883,-0.00137710571289062,0.0000427547735782318
884,-0.00139760971069336,0.0000559506994013696
885,-0.0013885498046875,0.0000507221168489661
886,-0.00130653381347656,0.0000604474562274769
887,-0.00139427185058594,0.0000497089872948477
888,-0.00141429901123047,0.000047134575236824
889,-0.00130653381347656,0.0000531561159673376
890,-0.00148105621337891,0.0000544806016783584
891,-0.00151348114013672,0.0000622541910069506
892,-0.00142955780029297,0.0000533375986256011
893,-0.00144290924072266,0.0000561575718705646
894,-0.00134944915771484,0.000039677894711904
895,-0.00140857696533203,0.0000516967134464054
896,-0.00139379501342773,0.000064642659345789
897,-0.00127315521240234,0.0000559100464138026
898,-0.00143003463745117,0.0000631336719233078
899,-0.00148439407348633,0.0000600852662363049
900,-0.00146389007568359,0.0000709911087122834
901,-0.00147390365600586,0.000064988199093051
902,-0.00141096115112305,0.0000594356047207713
903,-0.00149917602539062,0.000057570064965208
904,-0.00139760971069336,0.0000501461779556969
905,-0.00149345397949219,0.0000696492452621086
906,-0.0014796257019043,0.0000822651206520258
907,-0.00144433975219727,0.0000660432374738513
908,-0.0015568733215332,0.0000476455535766479
909,-0.0014805793762207,0.0000462298481754879
910,-0.00153684616088867,0.0000528687487295061
911,-0.00153732299804687,0.0000756504818947385
912,-0.00156545639038086,0.0000622852281878491
913,-0.00158166885375977,0.0000510750249961779
914,-0.00148534774780273,0.0000472201222810155
915,-0.00158357620239258,0.0000566814787564057
916,-0.00148963928222656,0.0000524856719956264
917,-0.00152778625488281,0.000063131871165398
918,-0.00165796279907227,0.0000515348252739317
919,-0.00164031982421875,0.0000679505498669857
920,-0.00156354904174805,0.000059857784603462
921,-0.00171184539794922,0.0000749954347661495
922,-0.00170660018920898,0.0000663249462781555
923,-0.00168323516845703,0.0000627217612357848
924,-0.00153732299804687,0.0000613120622398477
925,-0.00167036056518555,0.0000532949524217524
926,-0.00171995162963867,0.000059911889699663
927,-0.00170755386352539,0.0000566654307722912
928,-0.0017399787902832,0.000052682414231865
929,-0.001739501953125,0.0000632721763773698
930,-0.00165271759033203,0.0000577386597467301
931,-0.00166559219360352,0.0000527805103379124
932,-0.00174903869628906,0.0000575740143419682
933,-0.00188779830932617,0.0000709590730117747
934,-0.00189590454101562,0.0000635053295506496
935,-0.0018610954284668,0.0000585510596957504
936,-0.00202608108520508,0.0000807996308345621
937,-0.00193119049072266,0.0000774915399798956
938,-0.00202322006225586,0.0000705267787722943
939,-0.00199794769287109,0.0000634533926969138
940,-0.00198984146118164,0.0000726108861409752
941,-0.00205135345458984,0.0000709782961671784
942,-0.00220632553100586,0.0000581399238559599
943,-0.00221490859985352,0.0000490551658243395
944,-0.00212240219116211,0.0000763654373900131
945,-0.00211048126220703,0.0000725403954413175
946,-0.00218391418457031,0.0000939574921055204
947,-0.00226211547851562,0.0000757661084121079
948,-0.00222969055175781,0.0000833919892041871
949,-0.00226020812988281,0.0000933213079463992
950,-0.00240182876586914,0.0000891443209449764
951,-0.00244522094726562,0.0000847832022010394
952,-0.00233697891235352,0.0000990146359775224
953,-0.00263547897338867,0.0000837103894596422
954,-0.00257778167724609,0.00011507494452666
955,-0.00274944305419922,0.00010041017635929
956,-0.0028223991394043,0.00011796878052764
957,-0.00270509719848633,0.00009969432331369
958,-0.00266599655151367,0.0000777712488035612
959,-0.00294065475463867,0.0000736694119642237
960,-0.00308847427368164,0.0000763847883125219
961,-0.00273466110229492,0.0000752300349292587
962,-0.00279951095581055,0.000108314481513415
963,-0.00295066833496094,0.0000915999092314297
964,-0.00287914276123047,0.000139256044864136
965,-0.00274991989135742,0.000126252937166912
966,-0.00290393829345703,0.000104402295249662
967,-0.0027923583984375,0.000176833952725026
968,-0.00268173217773437,0.000160083828701889
969,-0.00261116027832031,0.000145265605256494
970,-0.00291347503662109,0.000181859465894054
971,-0.00251245498657227,0.000126698782497277
972,-0.00258207321166992,0.000145265605256494
973,-0.00254487991333008,0.000103681110273787
974,-0.00264453887939453,0.000111275853702803
975,-0.0025944709777832,0.000153778320126076
976,-0.00276422500610352,0.000172010702103319
977,-0.00250768661499023,0.000177931196165022
978,-0.00252628326416016,0.000143438450714957
979,-0.00244331359863281,0.000208110878375992
980,-0.00249624252319336,0.00015315902633579
981,-0.00278091430664062,0.0001411824560066
982,-0.00242710113525391,0.000168501055189418
983,-0.00243902206420898,0.000128247035781969
984,-0.00231838226318359,0.000169587857641588
985,-0.00210046768188477,0.000213601758441125
986,-0.00218486785888672,0.000144854935244206
987,-0.00245094299316406,0.000151490197075046
988,-0.00230646133422852,0.000182204214013056
989,-0.0023808479309082,0.000201953906637889
990,-0.00226831436157227,0.000163526643766475
991,-0.00214004516601562,0.000236214944391266
992,-0.00220584869384766,0.000211199569492344
993,-0.00229644775390625,0.000125602926307285
994,-0.00158405303955078,0.000170515794344626
995,-0.00174140930175781,0.000206923153779527
996,-0.00182008743286133,0.00020900920916447
997,-0.00201272964477539,0.000239389350554097
998,-0.00212764739990234,0.000230599948445917
999,-0.00191640853881836,0.000261014231643423
1000,-0.00210905075073242,0.000187114692206279
1001,-0.00186252593994141,0.000194025268188927
1002,-0.00228118896484375,0.000138978196065252
1003,-0.00188827514648437,0.000170635762320091
1004,-0.00209283828735352,0.000257110312713558
1005,-0.00150585174560547,0.000247588252749389
1006,-0.00215387344360352,0.000226312360766355
1007,-0.00229263305664062,0.000220309087998689
1008,-0.00175380706787109,0.000159568836778473
1009,-0.00181055068969727,0.000287364717636273
1010,-0.00150871276855469,0.000300321112453683
1011,-0.00193214416503906,0.000188171325470763
1012,-0.00200462341308594,0.00018059479506779
1013,-0.00200557708740234,0.000214171556909912
1014,-0.00189828872680664,0.0002101591818301
1015,-0.00146055221557617,0.000187255597331972
1016,-0.00170230865478516,0.000181619255157322
1017,-0.00192785263061523,0.000325123226206398
1018,-0.00181150436401367,0.000384007594933558
1019,-0.00173377990722656,0.000252930538533226
1020,-0.00164461135864258,0.000166472859823224
1021,-0.00140047073364258,0.0002364150743983
1022,-0.00154447555541992,0.000224650530828173
1023,-0.00157546997070312,0.000229710826056287
1024,-0.00231456756591797,0.000238090289117601
1025,-0.00195932388305664,0.000211358843585223
1026,-0.00194454193115234,0.000251089969387268
1027,-0.00215482711791992,0.000274008406113314
1028,-0.0020298957824707,0.000377905406221176
1029,-0.00218534469604492,0.000400452376465171
1030,-0.00178337097167969,0.000200062597293005
1031,-0.00117397308349609,0.00025489343560761
1032,-0.00180816650390625,0.000345309127277629
1033,-0.00132036209106445,0.000372348455533611
1034,-0.00207614898681641,0.000307426497604607
1035,-0.00215816497802734,0.000397452281112508
1036,-0.00159263610839844,0.000305056548668285
1037,-0.001983642578125,0.000220445278709096
1038,-0.00164937973022461,0.000256997091895512
1039,-0.00210189819335937,0.000233289868948679
1040,-0.00225067138671875,0.000340016659166235
1041,-0.00225162506103516,0.000437843500829355
1042,-0.00170278549194336,0.000297943486036941
1043,-0.00245046615600586,0.000334091047141914
1044,-0.00195646286010742,0.000458057627073502
1045,-0.00242519378662109,0.000509972380586804
1046,-0.00165939331054687,0.000415994442145251
1047,-0.00231838226318359,0.000549779802474052
1048,-0.00169038772583008,0.000512931406066028
1049,-0.00211858749389648,0.000502990654148152
1050,-0.00265979766845703,0.000634536793616952
1051,-0.00262165069580078,0.000522989291125911
1052,-0.00184965133666992,0.000440882305908176
1053,-0.00253009796142578,0.000564098156617001
1054,-0.00270891189575195,0.000469742447055129
1055,-0.0016026496887207,0.000752955919889852
1056,-0.00257110595703125,0.000890566383699975
1057,-0.00173854827880859,0.000550057652822142
1058,-0.00124931335449219,0.000441302936202824
1059,-0.00210094451904297,0.000764920523650774
1060,-0.00231790542602539,0.000671928360671962
1061,-0.00238561630249023,0.000883034441908587
1062,-0.0011286735534668,0.000933346587946275
1063,-0.00179910659790039,0.000737016886946614
1064,-0.00136947631835937,0.00070306433309987
1065,-0.00374412536621094,0.000764292470914834
1066,-0.00277900695800781,0.000881533537096149
1067,-0.00241470336914062,0.00120558918915578
1068,-0.00242519378662109,0.00116435159223302
1069,-0.00232791900634766,0.000898359181266171
1070,-0.00345230102539062,0.000763130164152382
1071,-0.00281858444213867,0.0012222994856687
1072,-0.00118541717529297,0.000625563829134359
1073,-0.00159072875976562,0.000850925494936588
1074,-0.00267457962036133,0.000964718762306109
1075,-0.00276041030883789,0.00100177756104292
1076,-0.00385379791259766,0.00140326945691218
1077,-0.00181102752685547,0.00131413967737135
1078,-0.00210666656494141,0.000998051953162844
1079,0.0000720024108886719,0.00137733288526442
1080,-0.00284957885742187,0.00132615469189665
1081,-0.00112152099609375,0.000980814973334357
1082,-0.00171279907226562,0.00110212407102932
1083,-0.00257444381713867,0.0015130841744756
1084,-0.000134944915771484,0.00141055105024389
1085,-0.00243759155273437,0.00115370472050185
1086,-0.00133562088012695,0.000925848323669799
1087,-0.00413084030151367,0.00099495612423631
1088,-0.00150823593139648,0.00150072343090387
1089,0.000449180603027344,0.00185245092822794
1090,0.000640869140625,0.00187568319311439
1091,-0.00316619873046875,0.00116285088067248
1092,0.000560283660888672,0.00140749406092138
1093,-0.00309038162231445,0.00180428325369616
1094,-0.00631093978881836,0.00261384437321336
1095,-0.00177431106567383,0.00172593025783419
1096,-0.00450658798217773,0.00204228503162889
1097,-0.00634193420410156,0.00194906766990183
1098,-0.00489711761474609,0.00207984627519566
1099,0.00306320190429687,0.00276331572377684
1100,-0.000944614410400391,0.00236235427015924
