Wavelength (nm),Absorbance (AU),Std.Dev.
190,0.361792087554932,0.0000749924028713103
191,0.337180137634277,0.000070429994345233
192,0.315520286560059,0.000064827059498463
193,0.297272682189941,0.0000455048575677533
194,0.2813720703125,0.0000590229257856935
195,0.267494678497314,0.0000722309930481397
196,0.255542755126953,0.0000623235468951883
197,0.244767665863037,0.0000361320190547965
198,0.234761238098145,0.0000253201204503775
199,0.225628852844238,0.0000381990911168962
200,0.217119216918945,0.0000274497347657394
201,0.209088325500488,0.0000318705985451133
202,0.2019362449646,0.0000329639013914192
203,0.195271492004395,0.0000259246632167279
204,0.189122200012207,0.0000303550954492602
205,0.183356761932373,0.0000317007066489096
206,0.177783012390137,0.0000316549488655143
207,0.172542572021484,0.0000344999180799963
208,0.167552947998047,0.0000390933774377667
209,0.162821292877197,0.0000429881326317493
210,0.158397674560547,0.0000438132657414337
211,0.154197692871094,0.0000348058463876622
212,0.150111198425293,0.0000347674460102419
213,0.14631175994873,0.000032725935506208
214,0.142658233642578,0.0000291046495918395
215,0.13908052444458,0.0000323907237016084
216,0.135604381561279,0.0000279824604852331
217,0.132215023040771,0.0000317535598595341
218,0.128841876983643,0.0000336102553251361
219,0.125531673431396,0.0000320422507240661
220,0.122248649597168,0.0000368231301426931
221,0.119068145751953,0.0000258588003930792
222,0.115989685058594,0.0000297326226580046
223,0.113014698028564,0.0000303246501813413
224,0.110256671905518,0.0000190827972812439
225,0.107681274414062,0.000022117740904444
226,0.105342388153076,0.0000230114073536987
227,0.103170394897461,0.0000291889976462917
228,0.101134300231934,0.0000287805889383747
229,0.0992259979248047,0.0000303199635805589
230,0.0973925590515137,0.0000284787973816664
231,0.0956602096557617,0.0000304280398054959
232,0.0940103530883789,0.0000420942163809841
233,0.0923089981079102,0.0000353905056643592
234,0.0908083915710449,0.0000325500304784281
235,0.0892682075500488,0.000040540974494225
236,0.0877285003662109,0.0000541887195965325
237,0.0862174034118652,0.0000416714482923119
238,0.0848236083984375,0.0000422041293003827
239,0.0834908485412598,0.0000418110332764605
240,0.0822582244873047,0.0000335772597107814
241,0.0811781883239746,0.0000384527113661357
242,0.0801472663879395,0.0000405641029207329
243,0.0791702270507813,0.0000311197899596316
244,0.078125,0.0000385103206696397
245,0.0771641731262207,0.0000325142108004071
246,0.0763206481933594,0.0000360477538157105
247,0.0754070281982422,0.0000260204143328096
248,0.0745000839233398,0.0000284997475796205
249,0.073643684387207,0.0000295210920574507
250,0.0727567672729492,0.0000306356277691645
251,0.0718851089477539,0.0000383038573020566
252,0.0710620880126953,0.0000340421324290253
253,0.0701766014099121,0.0000326572537832941
254,0.0694975852966309,0.0000280635986344677
255,0.068758487701416,0.0000216934705556448
256,0.0680346488952637,0.0000265464929006991
257,0.0674471855163574,0.0000323889687251109
258,0.0667629241943359,0.0000492886805998417
259,0.0661091804504395,0.0000394271096529598
260,0.065483570098877,0.0000327589209937262
261,0.0650653839111328,0.000037582512846447
262,0.0644397735595703,0.0000352859497070312
263,0.0637497901916504,0.0000509569168372824
264,0.0631012916564941,0.0000565077181550187
265,0.0624890327453613,0.0000374855880871459
266,0.0617799758911133,0.0000375900745681884
267,0.0610866546630859,0.0000432425844144998
268,0.0604062080383301,0.0000441377123466726
269,0.0598673820495606,0.0000384756176999411
270,0.0591659545898438,0.000049159344070567
271,0.0584621429443359,0.000052142312224454
272,0.0577878952026367,0.0000482960955930642
273,0.0571599006652832,0.0000377914130309757
274,0.0564284324645996,0.0000354795365058874
275,0.0557823181152344,0.0000298261547164841
276,0.0550394058227539,0.0000357254150946035
277,0.0542445182800293,0.0000365224269044066
278,0.0534954071044922,0.0000420300241248721
279,0.0527091026306152,0.00004359214943676
280,0.0518879890441895,0.0000398736808626543
281,0.0508723258972168,0.0000488205341309748
282,0.0499296188354492,0.0000379138019216236
283,0.0489683151245117,0.000028701477769112
284,0.0480055809020996,0.0000267613571073539
285,0.0469560623168945,0.0000291782848362914
286,0.0458087921142578,0.0000428450857005904
287,0.0446996688842773,0.0000364203401839817
288,0.0435891151428223,0.0000238299339994779
289,0.0424895286560059,0.0000306402660873744
290,0.0414004325866699,0.0000454511114081876
291,0.0403838157653809,0.0000443702036148723
292,0.0392718315124512,0.0000404441123173523
293,0.0382027626037598,0.0000290650730155611
294,0.0372323989868164,0.0000285928395191099
295,0.0363073348999023,0.0000279245057240511
296,0.0353279113769531,0.0000359601298060021
297,0.034400463104248,0.0000356369985294521
298,0.0336365699768066,0.0000322350383399116
299,0.0327839851379395,0.0000375870500620429
300,0.0320792198181152,0.0000355339677372951
301,0.0313034057617187,0.0000322922981375052
302,0.0306134223937988,0.0000242314691078093
303,0.0299739837646484,0.0000306829057159309
304,0.0293397903442383,0.0000327632587171591
305,0.0287313461303711,0.0000324415767219761
306,0.0280814170837402,0.000045659492223841
307,0.027531623840332,0.0000356010914206213
308,0.0270695686340332,0.0000347748025565183
309,0.0265030860900879,0.0000508351798290323
310,0.0260429382324219,0.0000552102480794279
311,0.025599479675293,0.0000385958370121226
312,0.0251431465148926,0.0000302025622119849
313,0.0246620178222656,0.000037660325861522
314,0.0241007804870605,0.0000304182305617339
315,0.0237689018249512,0.0000325264463450491
316,0.0232186317443848,0.0000337284352092022
317,0.0228939056396484,0.0000400039094488067
318,0.0224409103393555,0.0000513680007740102
319,0.0220861434936523,0.0000430918085478669
320,0.0215950012207031,0.0000414080292517938
321,0.021204948425293,0.0000333794525582835
322,0.0208110809326172,0.0000303911219167677
323,0.0205268859863281,0.0000505750942846243
324,0.0201230049133301,0.0000596894614430196
325,0.0197658538818359,0.0000567606491699388
326,0.0193314552307129,0.000046418817685695
327,0.0190815925598145,0.0000438002897998663
328,0.0187582969665527,0.0000406893280571195
329,0.018491268157959,0.000038314985782318
330,0.018096923828125,0.0000518186203998799
331,0.0177130699157715,0.0000705154941007155
332,0.0173225402832031,0.0000534685225921334
333,0.0169763565063477,0.0000510226900210807
334,0.0167269706726074,0.0000393722856302894
335,0.0163722038269043,0.000035192391367159
336,0.0159687995910645,0.0000415046962231599
337,0.0156521797180176,0.0000620987724155415
338,0.0153260231018066,0.000051395658128501
339,0.015073299407959,0.0000557899475097656
340,0.0146946907043457,0.0000479630395335502
341,0.0143094062805176,0.0000487820959696164
342,0.0139303207397461,0.0000541047353241275
343,0.0135641098022461,0.0000411505218419338
344,0.0132365226745605,0.0000360438113698283
345,0.0129303932189941,0.0000376044376503668
346,0.012540340423584,0.0000407249362442938
347,0.0123815536499023,0.0000370715974540855
348,0.0118317604064941,0.000032950965747005
349,0.0116562843322754,0.0000470754450611724
350,0.0113339424133301,0.000037304699175175
351,0.0109672546386719,0.0000388366228713656
352,0.010596752166748,0.0000480151578374647
353,0.0102519989013672,0.000053338664343827
354,0.00991487503051758,0.0000578271964108897
355,0.00961208343505859,0.0000444687402039881
356,0.00930547714233398,0.0000375219642122383
357,0.00900173187255859,0.0000528622972561477
358,0.00880193710327148,0.0000526424767303184
359,0.00851297378540039,0.0000661636257569712
360,0.00830411911010742,0.0000558245787769593
361,0.00786399841308594,0.0000477504263577272
362,0.00763320922851563,0.0000511417577779988
363,0.00733041763305664,0.0000685734276658348
364,0.00717926025390625,0.0000567205766956227
365,0.00697898864746094,0.000045502359154071
366,0.00714635848999023,0.0000363030944450722
367,0.00697898864746094,0.000058450978154433
368,0.00647449493408203,0.0000624602075185071
369,0.00658512115478516,0.0000817772250821483
370,0.00623464584350586,0.0000698562368179295
371,0.00652599334716797,0.0000583439053806019
372,0.00640010833740234,0.000054409606268295
373,0.00622081756591797,0.0000584480605896966
374,0.00644588470458984,0.0000811492229672403
375,0.00640726089477539,0.0000977783631742576
376,0.00604438781738281,0.000074534696699621
377,0.00642299652099609,0.0000719313239026378
378,0.00668573379516602,0.0000808066656370546
379,0.00584316253662109,0.0000792984638442513
380,0.00573158264160156,0.0000631750751883609
381,0.00556039810180664,0.0000614047038904604
382,0.00591754913330078,0.0000619117551085576
383,0.00529241561889648,0.0000616467648085297
384,0.00540399551391602,0.0000571329719572073
385,0.00508928298950195,0.0000479665948531899
386,0.00516796112060547,0.0000636840972997257
387,0.00545644760131836,0.0000838664252019898
388,0.00503730773925781,0.0000830778425218139
389,0.00369739532470703,0.0000549253486632611
390,0.00471019744873047,0.0000677310215170467
391,0.00483846664428711,0.0000632272406613076
392,0.00529003143310547,0.0000783595948518398
393,0.00406742095947266,0.0000537833422073117
394,0.00344371795654297,0.0000604634405290834
395,0.00362968444824219,0.0000915577012939987
396,0.00380086898803711,0.0000582014863792436
397,0.00456523895263672,0.0000414560481213257
398,0.00407314300537109,0.0000502458317204913
399,0.00276327133178711,0.0000547927185906343
400,0.00328636169433594,0.0000455934625548417
401,0.00288677215576172,0.0000725811317516077
402,0.00288200378417969,0.0000691989133211965
403,0.00317859649658203,0.0000523099273285824
404,0.00319337844848633,0.0000572472747910416
405,0.00304603576660156,0.000072190059157469
406,0.00153446197509766,0.0000628937185391825
407,0.00195407867431641,0.0000573306215330834
408,0.0031743049621582,0.0000662288877528182
409,0.00193023681640625,0.00005833026383733
410,0.00174427032470703,0.0000729685504711048
411,0.0021662712097168,0.0000760656158786868
412,0.00255537033081055,0.0000710423357851741
413,0.00165987014770508,0.0000797117140717794
414,0.00121545791625977,0.0000635608013265672
415,0.00165033340454102,0.0000761418017678301
416,0.00132083892822266,0.0000649076793013558
417,0.0012059211730957,0.0000830258256111462
418,0.00151300430297852,0.0000649619536053711
419,0.00127458572387695,0.000052209858341612
420,0.00174951553344727,0.0000395480299124385
421,0.00255107879638672,0.0000409039019012737
422,0.000319957733154297,0.0000383979764885031
423,0.000544548034667969,0.0000558805545042247
424,0.000220775604248047,0.0000646514522317398
425,-0.0000596046447753906,0.0000654675017249393
426,0.000455856323242188,0.0000681960494274842
427,0.00156211853027344,0.000061609870457982
428,-0.000230312347412109,0.0000458185676922289
429,0.00184917449951172,0.0000474782331004872
430,0.0000467300415039063,0.0000705622331339924
431,-0.00142812728881836,0.0000821918443100888
432,-0.000680923461914063,0.0000550731435781089
433,0.000615119934082031,0.0000787171353847367
434,-0.000860691070556641,0.0000799523827750682
435,-0.00116109848022461,0.0000499132583772237
436,-0.000227928161621094,0.0000527902022450187
437,-0.000512599945068359,0.0000538013064453835
438,-0.000210285186767578,0.0000512294900306797
439,-0.000919818878173828,0.0000494533239840095
440,-0.000288009643554687,0.0000493013649961961
441,0.000835418701171875,0.0000569016795737316
442,-0.00192451477050781,0.0000559273275441874
443,-0.000354766845703125,0.0000567386128114091
444,-0.00153160095214844,0.0000647393154076029
445,-0.00100517272949219,0.0000599867967769958
446,-0.00100374221801758,0.0000477992089651211
447,-0.00186634063720703,0.0000457378563218201
448,-0.00124502182006836,0.0000460252848689378
449,-0.00125408172607422,0.0000357015403185338
450,-0.00198078155517578,0.0000533344013431533
451,-0.00160408020019531,0.0000594499487896297
452,-0.0018458366394043,0.0000577622827929609
453,-0.0019688606262207,0.000065543864883179
454,-0.00152063369750977,0.0000643111744280292
455,-0.00183963775634766,0.0000566162555240186
456,-0.00177574157714844,0.0000710887284342692
457,-0.00121736526489258,0.0000570054784159792
458,-0.00173473358154297,0.0000711446792742914
459,-0.00227451324462891,0.0000400394173550436
460,-0.00244903564453125,0.0000398230403510039
461,-0.00228595733642578,0.0000498277718647179
462,-0.00240850448608398,0.0000701647690846115
463,-0.00121545791625977,0.0000620951108233678
464,-0.00208234786987305,0.0000438314256060374
465,-0.00236892700195312,0.0000487564536934239
466,-0.00337457656860352,0.0000562445548159259
467,-0.00246763229370117,0.0000830121315330358
468,-0.00289106369018555,0.0000756745227253747
469,-0.00299072265625,0.0000657257366618737
470,-0.00248003005981445,0.0000541005326881631
471,-0.0024571418762207,0.0000512527859964281
472,-0.0021061897277832,0.0000639495342166147
473,-0.00258684158325195,0.0000716621366801245
474,-0.00271081924438477,0.0000661498781851108
475,-0.00216150283813477,0.0000636662431130226
476,-0.003143310546875,0.0000515921499026373
477,-0.00291156768798828,0.0000702926549580884
478,-0.00268220901489258,0.000082586488860289
479,-0.00257015228271484,0.000103698652866912
480,-0.00284481048583984,0.0000595244822273314
481,-0.00304985046386719,0.0000510048616073384
482,-0.00329494476318359,0.000052894546754169
483,-0.00250244140625,0.0000420942163809841
484,-0.00382852554321289,0.0000472153068494018
485,0.0125269889831543,0.0000499553778368975
486,-0.0122547149658203,0.0000583536473876127
487,-0.00461339950561523,0.0000586558161648891
488,-0.00498533248901367,0.0000665337364590648
489,-0.00307178497314453,0.0000505514860148194
490,-0.00356531143188477,0.000056066398698353
491,-0.00350522994995117,0.0000675612798466909
492,-0.00336503982543945,0.0000510817021974261
493,-0.00319194793701172,0.0000605404820042522
494,-0.00371074676513672,0.0000748634338378906
495,-0.0029902458190918,0.0000580166028342223
496,-0.00357723236083984,0.0000752783774604081
497,-0.00395011901855469,0.0000646901267314626
498,-0.00315141677856445,0.0000797502128492338
499,-0.00334024429321289,0.0000734344705195533
500,-0.00401830673217773,0.0000494498755565091
501,-0.00349235534667969,0.0000671460543171663
502,-0.00365161895751953,0.0000757661084121079
503,-0.00366401672363281,0.0000583478023785945
504,-0.00405406951904297,0.0000529911774895021
505,-0.0034327507019043,0.0000689042068159131
506,-0.00419044494628906,0.0000585549429070358
507,-0.00411844253540039,0.0000445402662569747
508,-0.00385427474975586,0.0000451889696624704
509,-0.0040593147277832,0.0000757616067866103
510,-0.00391387939453125,0.0000818980833225046
511,-0.00398111343383789,0.0000698660007758803
512,-0.00388956069946289,0.0000617849224084357
513,-0.00405073165893555,0.0000664961342210548
514,-0.00413322448730469,0.0000554957334745526
515,-0.00409364700317383,0.0000633583636148398
516,-0.00408172607421875,0.0000539848319900472
517,-0.00437545776367188,0.0000572284057185268
518,-0.00424432754516602,0.0000658156204169574
519,-0.00442266464233398,0.0000526197960154727
520,-0.00436162948608398,0.0000511484262675777
521,-0.00432920455932617,0.0000483666626903045
522,-0.00436496734619141,0.0000514288273208071
523,-0.00412511825561523,0.0000531400730350196
524,-0.00438213348388672,0.000057480143335465
525,-0.0044093132019043,0.0000473751575226948
526,-0.00444889068603516,0.000038477833718241
527,-0.00440740585327148,0.0000481511097327428
528,-0.00407981872558594,0.0000373724449939914
529,-0.00455522537231445,0.0000431379531647744
530,-0.00435876846313477,0.0000509836822686144
531,-0.00445795059204102,0.0000550173795662609
532,-0.00417327880859375,0.0000648849055983507
533,-0.00414752960205078,0.0000644083279433783
534,-0.0044398307800293,0.0000827831056306721
535,-0.00476789474487305,0.0000780047878564921
536,-0.00476360321044922,0.0000627561903906875
537,-0.00426006317138672,0.0000556665261694862
538,-0.00439262390136719,0.0000574910204560725
539,-0.00468015670776367,0.0000589737885808575
540,-0.00467586517333984,0.0000525516951385347
541,-0.00457572937011719,0.0000558367964489153
542,-0.00452709197998047,0.0000551463771163005
543,-0.00480413436889648,0.0000694039718911308
544,-0.00467538833618164,0.0000599280168504336
545,-0.00498294830322266,0.0000412939327139777
546,-0.00476646423339844,0.0000449923085923705
547,-0.00413846969604492,0.0000405991208858868
548,-0.00504446029663086,0.0000440448884535045
549,-0.00497579574584961,0.0000589786077639027
550,-0.0051116943359375,0.0000535439508596789
551,-0.0046839714050293,0.0000573286384950332
552,-0.00475597381591797,0.0000486572542952503
553,-0.00487136840820313,0.0000336313893333647
554,-0.00497293472290039,0.0000411760689522606
555,-0.00443840026855469,0.0000283978446960026
556,-0.00505399703979492,0.0000371160377207978
557,-0.00493144989013672,0.0000456121598952031
558,-0.00512981414794922,0.0000371932983398437
559,-0.00489187240600586,0.0000492967528660587
560,-0.00468969345092773,0.0000419244004679261
561,-0.00514030456542969,0.0000443778896507208
562,-0.00495386123657227,0.0000370999534271353
563,-0.00483512878417969,0.0000461781768278518
564,-0.00490283966064453,0.000041672812355498
565,-0.00523757934570313,0.0000347756198544856
566,-0.00487995147705078,0.000038067167966879
567,-0.00463342666625977,0.0000496700922628174
568,-0.0047764778137207,0.0000394868962993037
569,-0.00430440902709961,0.0000291631828337616
570,-0.00468778610229492,0.0000326137095977051
571,-0.00450611114501953,0.000044303535448807
572,-0.00608253479003906,0.0000404960817133499
573,-0.00391197204589844,0.0000373519058753321
574,-0.00505208969116211,0.0000449569193897323
575,-0.00592851638793945,0.0000369371864047211
576,-0.00384807586669922,0.0000371543056325202
577,-0.00433826446533203,0.0000289661403037228
578,-0.00600481033325195,0.0000222509815126802
579,-0.00519275665283203,0.000022117740904444
580,-0.00364542007446289,0.0000343256520134262
581,-0.00314903259277344,0.0000274310910678002
582,-0.00685691833496094,0.0000224809883477449
583,-0.00662374496459961,0.000029481592495847
584,-0.00348377227783203,0.0000258340585438051
585,-0.00449895858764648,0.0000280347200963192
586,-0.00634765625,0.0000485718978052019
587,-0.00360584259033203,0.0000320759392906993
588,-0.00607776641845703,0.0000402475702033855
589,-0.00572776794433594,0.0000300241795558867
590,-0.0049290657043457,0.0000355571557116439
591,-0.00559616088867188,0.0000306142824540606
592,-0.00288295745849609,0.0000311471769137656
593,-0.0051422119140625,0.0000356274268389094
594,-0.00472736358642578,0.0000290919518667719
595,-0.00514936447143555,0.0000219901560760467
596,-0.00587224960327148,0.0000342858848805381
597,-0.00445079803466797,0.0000417688665356856
598,-0.00475740432739258,0.0000466496886127568
599,-0.00446939468383789,0.0000362231505747917
600,-0.00495386123657227,0.0000415936227447032
601,-0.00548839569091797,0.000043305635603877
602,-0.00505924224853516,0.000034687240406621
603,-0.0052037239074707,0.0000257927693867383
604,-0.00612354278564453,0.0000271006530067279
605,-0.00445318222045898,0.000029248819700206
606,-0.00611495971679688,0.0000300227595812882
607,-0.00542879104614258,0.0000363789565259551
608,-0.00610780715942383,0.0000449998883720552
609,-0.00584650039672852,0.0000353052756508117
610,-0.00524759292602539,0.0000268578291256694
611,-0.00643539428710938,0.0000282659277894444
612,-0.00580692291259766,0.0000374165279405083
613,-0.00575590133666992,0.0000349028839726172
614,-0.00656223297119141,0.0000255174717213629
615,-0.00604248046875,0.0000216679075612031
616,-0.00706720352172852,0.0000301418042534334
617,-0.00620555877685547,0.0000402115393004862
618,-0.00615596771240234,0.0000402715728959984
619,-0.00594282150268555,0.0000333052920066738
620,-0.00577163696289063,0.0000385737388919004
621,-0.00662612915039063,0.0000311261824042656
622,-0.00567150115966797,0.0000467069237805284
623,-0.00671005249023438,0.0000507915516752433
624,-0.00638628005981445,0.0000451121722160954
625,-0.00684165954589844,0.0000312482999408121
626,-0.00676298141479492,0.0000366079286912331
627,-0.00628995895385742,0.0000480684021978485
628,-0.00687503814697266,0.0000402609852367624
629,-0.00617742538452148,0.0000397959105044849
630,-0.00696229934692383,0.0000340387926730642
631,-0.00674009323120117,0.0000266277371393119
632,-0.00671148300170898,0.000035949062961369
633,-0.00665187835693359,0.0000315650351780612
634,-0.00673675537109375,0.0000340863533032637
635,-0.00677776336669922,0.0000321210973620536
636,-0.00653266906738281,0.0000459412248672345
637,-0.00702810287475586,0.0000417885949850301
638,-0.00707435607910156,0.0000332198454807322
639,-0.00728607177734375,0.0000443304712004717
640,-0.00679731369018555,0.0000371466552040169
641,-0.00652599334716797,0.0000406690663599858
642,-0.00627994537353516,0.0000505986915393155
643,-0.00630855560302734,0.000045403561847129
644,-0.00660896301269531,0.000039323167767495
645,-0.00674343109130859,0.000033062906528498
646,-0.00691461563110352,0.0000447490777517095
647,-0.00686502456665039,0.0000337553896595032
648,-0.00671577453613281,0.0000411118257488921
649,-0.00698041915893555,0.0000488996447614781
650,-0.00708436965942383,0.0000575977049156863
651,-0.00686788558959961,0.0000512538950640181
652,-0.00705862045288086,0.0000494107765580719
653,-0.0066676139831543,0.0000435543175152922
654,-0.00798273086547852,0.0000360509074619976
655,0.00566387176513672,0.0000225636451183497
656,-0.00559282302856445,0.0000265641525695451
657,-0.0234165191650391,0.0000373366844288892
658,-0.00702476501464844,0.0000312428421990989
659,-0.00778961181640625,0.000045100830375007
660,-0.00726604461669922,0.0000378455231835389
661,-0.00723648071289063,0.0000354314395070387
662,-0.00723075866699219,0.0000508910586462508
663,-0.00736713409423828,0.0000600455191625764
664,-0.00719881057739258,0.0000392790538928836
665,-0.00732088088989258,0.0000420361096999601
666,-0.00753307342529297,0.0000447198519939517
667,-0.0073399543762207,0.0000532063524976667
668,-0.00741291046142578,0.0000488356681302105
669,-0.00740718841552734,0.0000312819349735404
670,-0.00747919082641602,0.0000287707119385511
671,-0.00719213485717773,0.000035832654733189
672,-0.00730752944946289,0.0000276745334923842
673,-0.00773239135742188,0.000034437250873045
674,-0.00738191604614258,0.0000413812517111535
675,-0.00746917724609375,0.0000458557711798527
676,-0.00741434097290039,0.0000362827333231312
677,-0.00730133056640625,0.0000389082758690364
678,-0.0073699951171875,0.0000350645568909587
679,-0.00728178024291992,0.0000404068499135851
680,-0.0075221061706543,0.0000320466854535413
681,-0.00733375549316406,0.0000411926315791305
682,-0.00744724273681641,0.0000388022117329183
683,-0.00731849670410156,0.0000415908893792048
684,-0.00722265243530273,0.0000479879212395062
685,-0.00721454620361328,0.0000283211769147299
686,-0.00737762451171875,0.0000226158591017355
687,-0.00737714767456055,0.000029695318768919
688,-0.00746822357177734,0.0000368007398615673
689,-0.00729036331176758,0.0000274414502415334
690,-0.00740575790405273,0.0000283552770763521
691,-0.00712442398071289,0.0000400982910595553
692,-0.00746059417724609,0.0000398608485107543
693,-0.00722217559814453,0.0000430621180398419
694,-0.00744247436523438,0.0000362066696309941
695,-0.00735330581665039,0.0000352738656152714
696,-0.00736141204833984,0.0000249053284782421
697,-0.00698566436767578,0.0000297364460519197
698,-0.00747203826904297,0.0000380813511049297
699,-0.00729846954345703,0.0000322993384816533
700,-0.0074462890625,0.0000362207966133746
701,-0.00735235214233398,0.0000261288706649892
702,-0.00718021392822266,0.000024416088042574
703,-0.00732707977294922,0.0000219701135922542
704,-0.00741863250732422,0.0000292590209978598
705,-0.00743293762207031,0.0000360493306733397
706,-0.00705385208129883,0.0000417593391208705
707,-0.00698947906494141,0.0000321078221693657
708,-0.0075383186340332,0.0000270996042401399
709,-0.00740718841552734,0.0000371305841732936
710,-0.0072479248046875,0.0000423781898562028
711,-0.00732564926147461,0.0000386046727183726
712,-0.0073704719543457,0.0000231879688417158
713,-0.00721406936645508,0.0000273038722228093
714,-0.00722885131835938,0.0000368416497399122
715,-0.00736618041992188,0.0000471393989154158
716,-0.00763034820556641,0.0000382385049832831
717,-0.00747108459472656,0.0000344017438610606
718,-0.00722455978393555,0.0000431419061210726
719,-0.00733327865600586,0.0000348865940044132
720,-0.00747108459472656,0.0000332241230261693
721,-0.00746536254882813,0.0000395688656534667
722,-0.00748348236083984,0.0000506783913612994
723,-0.00739908218383789,0.0000359656619513189
724,-0.00736045837402344,0.0000309962492180163
725,-0.00745439529418945,0.0000460512135655405
726,-0.00757265090942383,0.0000382080185718034
727,-0.00763988494873047,0.0000335738737117096
728,-0.00741910934448242,0.0000323828255583756
729,-0.00732564926147461,0.0000472213260621912
730,-0.00766801834106445,0.0000473499538194916
731,-0.00759792327880859,0.0000525679176351824
732,-0.00781726837158203,0.0000396872056614487
733,-0.00756311416625977,0.0000407953626948791
734,-0.00749444961547852,0.0000532800181860775
735,-0.00772190093994141,0.0000439971111084121
736,-0.00769901275634766,0.0000459845102357528
737,-0.00781393051147461,0.000047443500082206
738,-0.00810813903808594,0.000037558305106192
739,-0.00752067565917969,0.000049398120256309
740,-0.00795984268188477,0.0000572889633191711
741,-0.0079045295715332,0.0000550277104985774
742,-0.00760984420776367,0.0000526057506725223
743,-0.00782871246337891,0.0000391500440122719
744,-0.00782537460327148,0.0000268858575452498
745,-0.00793886184692383,0.0000271593193001459
746,-0.00797414779663086,0.0000387956188840502
747,-0.0077977180480957,0.000041134633208887
748,-0.00794172286987305,0.0000434641712496637
749,-0.00763177871704102,0.0000520386440496761
750,-0.00759220123291016,0.0000541383446671671
751,-0.00776767730712891,0.000037826743708179
752,-0.00787496566772461,0.0000440242343428947
753,-0.00767850875854492,0.0000535142171969983
754,-0.00780630111694336,0.0000317051891515337
755,-0.0077972412109375,0.0000310008335804004
756,-0.00775575637817383,0.0000457105063468518
757,-0.00763607025146484,0.0000343711619556886
758,-0.00792407989501953,0.0000445198419678086
759,-0.00785160064697266,0.0000414162650119943
760,-0.00768232345581055,0.0000416496172056272
761,-0.00796175003051758,0.0000342502209486376
762,-0.00802803039550781,0.0000259460326363887
763,-0.00765275955200195,0.0000253823424720493
764,-0.00745296478271484,0.0000272068925165195
765,-0.00758838653564453,0.000038924343107058
766,-0.00814628601074219,0.0000450592191995194
767,-0.00798416137695313,0.0000530362115814113
768,-0.00747013092041016,0.0000343752962355014
769,-0.0077061653137207,0.0000432820021715353
770,-0.00771331787109375,0.0000519807182725446
771,-0.00777292251586914,0.0000512882642638913
772,-0.00802946090698242,0.0000593111441435753
773,-0.00786352157592773,0.0000521215950849141
774,-0.00807857513427734,0.0000486140101468389
775,-0.00790929794311523,0.0000507198754332533
776,-0.00782632827758789,0.0000430581577585957
777,-0.00790166854858398,0.0000274818137082349
778,-0.00777816772460938,0.0000321661920361181
779,-0.00769567489624023,0.0000321529354619686
780,-0.0079035758972168,0.000036558983952979
781,-0.00772190093994141,0.0000527212433033952
782,-0.00787925720214844,0.0000522131244857493
783,-0.00792741775512695,0.0000534727749002833
784,-0.00792360305786133,0.0000456906051730773
785,-0.00796318054199219,0.0000356641043688109
786,-0.00792837142944336,0.0000447922461159415
787,-0.00772333145141602,0.0000462421423671728
788,-0.00780820846557617,0.0000489368290411817
789,-0.00805044174194336,0.0000422384604876328
790,-0.00802516937255859,0.0000401896223785427
791,-0.00806236267089844,0.0000363289209736573
792,-0.00804805755615234,0.000047714700168953
793,-0.00786256790161133,0.0000436781275217521
794,-0.00785493850708008,0.0000494211293032767
795,-0.00803756713867188,0.0000434707098700804
796,-0.00843286514282227,0.000033638149411691
797,-0.00795507431030273,0.00003642190091078
798,-0.00808906555175781,0.000039852291313938
799,-0.0081181526184082,0.0000557838338778904
800,-0.00814342498779297,0.0000492909870965135
801,-0.00806427001953125,0.0000348450201157477
802,-0.00823593139648438,0.000043403969724956
803,-0.00809717178344727,0.0000604568592696474
804,-0.00830602645874023,0.0000482171736148755
805,-0.00818157196044922,0.0000488216984513177
806,-0.00808143615722656,0.0000438845648378126
807,-0.00834035873413086,0.000046183100399337
808,-0.00830888748168945,0.000045114692238007
809,-0.00836658477783203,0.0000437223532794036
810,-0.00834941864013672,0.0000306152108206993
811,-0.00831222534179688,0.0000360895172641266
812,-0.00842809677124023,0.0000336330794803283
813,-0.00822114944458008,0.0000266170612760252
814,-0.00832700729370117,0.0000304504490682404
815,-0.00846576690673828,0.0000420104090528808
816,-0.00839614868164063,0.0000481546511669205
817,-0.00839376449584961,0.0000585636791909944
818,-0.00856113433837891,0.0000515491624074054
819,-0.0084538459777832,0.0000446282389305806
820,-0.00826501846313477,0.0000510048616073384
821,-0.00842094421386719,0.0000410696331595104
822,-0.0084991455078125,0.0000425782474713057
823,-0.00857019424438477,0.0000446600703200077
824,-0.00855302810668945,0.0000425081003897771
825,-0.0084986686706543,0.0000418972745872642
826,-0.00852870941162109,0.0000356489595285905
827,-0.00851154327392578,0.0000388249118653334
828,-0.00855255126953125,0.0000382541105654365
829,-0.00858879089355469,0.0000374134894048577
830,-0.0086522102355957,0.0000493647380886685
831,-0.00879478454589844,0.0000492944466391684
832,-0.00854873657226563,0.000045160028585997
833,-0.00861740112304688,0.0000395480299124385
834,-0.00853252410888672,0.0000373701634271558
835,-0.00868606567382813,0.0000417395968435837
836,-0.00862550735473633,0.0000427594266525861
837,-0.00865316390991211,0.0000337823226032261
838,-0.00871658325195313,0.0000448531189586824
839,-0.00863456726074219,0.0000524195656957539
840,-0.00859260559082031,0.0000384977721427857
841,-0.00862026214599609,0.000035024817236284
842,-0.00867700576782227,0.0000428464123997407
843,-0.00861978530883789,0.0000479725198003886
844,-0.00855684280395508,0.0000393246132861886
845,-0.00855493545532227,0.0000460783613129732
846,-0.00851631164550781,0.0000482937415806536
847,-0.00842618942260742,0.0000444623483538733
848,-0.00850772857666016,0.0000467409880136941
849,-0.00847482681274414,0.0000408962579356786
850,-0.0084834098815918,0.0000473967500297134
851,-0.00848865509033203,0.0000680124257266061
852,-0.00828313827514648,0.0000455984492619062
853,-0.00823307037353516,0.0000495807471913696
854,-0.00837421417236328,0.0000607036363908353
855,-0.00855636596679688,0.000051476332557938
856,-0.00844049453735352,0.0000438417992942735
857,-0.00838518142700195,0.0000441480140651806
858,-0.00839757919311523,0.0000468503124417676
859,-0.00847578048706055,0.0000445223955163477
860,-0.00835990905761719,0.0000544639052018161
861,-0.00831079483032227,0.0000592229062994174
862,-0.0082244873046875,0.0000493347900449782
863,-0.00820493698120117,0.0000479334016146764
864,-0.00827693939208984,0.0000516163834650014
865,-0.00835275650024414,0.0000444572342121088
866,-0.00820255279541016,0.0000477099346558156
867,-0.00824928283691406,0.0000402376825800442
868,-0.00821590423583984,0.0000515822328911487
869,-0.00819587707519531,0.0000383424222239164
870,-0.00813913345336914,0.0000390519152490197
871,-0.00827980041503906,0.0000392508239580328
872,-0.00822877883911133,0.0000427594266525861
873,-0.00812101364135742,0.0000501269038274175
874,-0.00819635391235352,0.0000535598728175258
875,-0.00812911987304688,0.0000410142328265188
876,-0.00823354721069336,0.0000501711099537802
877,-0.00829744338989258,0.0000703282273480331
878,-0.00814628601074219,0.0000624820454799641
879,-0.0081629753112793,0.0000435164527038792
880,-0.00816202163696289,0.0000509613787187179
881,-0.00831127166748047,0.0000631300703561225
882,-0.00820684432983398,0.000048960054874972
883,-0.00819587707519531,0.0000651279964024189
884,-0.00819778442382813,0.0000577829450361103
885,-0.00812578201293945,0.0000375560348305466
886,-0.00822830200195313,0.0000403540613014902
887,-0.0082244873046875,0.0000593025179742013
888,-0.008270263671875,0.0000700966841321916
889,-0.00816631317138672,0.0000598748757052024
890,-0.00815296173095703,0.0000414718136144474
891,-0.00810337066650391,0.0000404497338494272
892,-0.00823593139648438,0.0000573880998287754
893,-0.00817775726318359,0.0000556031793321151
894,-0.00819730758666992,0.000053923726210322
895,-0.00808382034301758,0.0000528751994156994
896,-0.00812292098999023,0.0000373016515301248
897,-0.00828933715820313,0.0000511773130149541
898,-0.00810766220092773,0.0000542432396439699
899,-0.00836277008056641,0.0000733027605078722
900,-0.00826549530029297,0.0000824900720389406
901,-0.00820255279541016,0.0000528504675095915
902,-0.00830173492431641,0.0000291314919268209
903,-0.00827503204345703,0.000035672869495415
904,-0.00822877883911133,0.0000442714477097899
905,-0.00828218460083008,0.0000608028147035089
906,-0.00840520858764648,0.0000537896832117008
907,-0.00825023651123047,0.0000337949400317763
908,-0.00838375091552734,0.0000319712113932996
909,-0.00831317901611328,0.0000630020813323854
910,-0.00830888748168945,0.0000528805743864284
911,-0.00841522216796875,0.0000543709374691588
912,-0.00849103927612305,0.000056814702176724
913,-0.00848293304443359,0.0000533748861026043
914,-0.00858306884765625,0.0000555643181547828
915,-0.00859928131103516,0.0000706556184463175
916,-0.00853824615478516,0.0000505031108376945
917,-0.00862360000610352,0.0000491014945552812
918,-0.00865936279296875,0.000066661766499715
919,-0.00873994827270508,0.0000819494287831911
920,-0.00874662399291992,0.0000753085757837747
921,-0.00890779495239258,0.0000635071197190681
922,-0.00886297225952148,0.0000481640937183456
923,-0.00901222229003906,0.000046764088897497
924,-0.00912618637084961,0.0000639975156998999
925,-0.00914096832275391,0.0000667009798083785
926,-0.00925159454345703,0.0000774137453147519
927,-0.00912570953369141,0.00007265158292659
928,-0.0094447135925293,0.0000804358000814138
929,-0.00943708419799805,0.0000678450638268753
930,-0.00950431823730469,0.0000733213692055718
931,-0.00966548919677734,0.000074556047665905
932,-0.00954294204711914,0.0000685402619511526
933,-0.0097041130065918,0.0000724855219484706
934,-0.00987482070922852,0.0000866952375592309
935,-0.00999832153320313,0.0000606164878161267
936,-0.0101842880249023,0.0000541845234745193
937,-0.0100793838500977,0.0000537960234686678
938,-0.0103330612182617,0.0000665200653773036
939,-0.0104784965515137,0.0000625874882107918
940,-0.010655403137207,0.0000706524003178994
941,-0.0105371475219727,0.000073508743676575
942,-0.0107307434082031,0.000088917025605404
943,-0.0109219551086426,0.0000860331055856031
944,-0.0108451843261719,0.0000565841180080937
945,-0.011101245880127,0.0000723017854006064
946,-0.0112624168395996,0.0000955508375878911
947,-0.0114645957946777,0.0000879890541422173
948,-0.0116372108459473,0.0000772505630120782
949,-0.011878490447998,0.0000612081371247168
950,-0.0121350288391113,0.0000820076738620229
951,-0.0121011734008789,0.000066545696351698
952,-0.0124335289001465,0.0000638142815299858
953,-0.0126042366027832,0.0000939550721111321
954,-0.0127096176147461,0.000099053666477957
955,-0.0130214691162109,0.0000790543663767706
956,-0.0129680633544922,0.000102784680063686
957,-0.0134844779968262,0.000108996672159791
958,-0.0138096809387207,0.000111755005457232
959,-0.0138278007507324,0.000097522233856898
960,-0.0137624740600586,0.0000783000880245438
961,-0.014014720916748,0.0000610686746591073
962,-0.0141086578369141,0.0000862838122421451
963,-0.0139827728271484,0.0000936132266238754
964,-0.0141911506652832,0.0000627634362272653
965,-0.0140533447265625,0.0000953650474250309
966,-0.0137701034545898,0.000113855294055084
967,-0.0137228965759277,0.000125370999182585
968,-0.0136861801147461,0.000122820515890489
969,-0.013585090637207,0.000133735609731906
970,-0.0135598182678223,0.000130112775617159
971,-0.013432502746582,0.000142506516327808
972,-0.0131721496582031,0.000141465619207677
973,-0.0130906105041504,0.000143989031601771
974,-0.0132384300231934,0.000153710290360331
975,-0.0127954483032227,0.000149638763552929
976,-0.0128717422485352,0.000102216804557604
977,-0.0126519203186035,0.000141719340597011
978,-0.0126652717590332,0.00015237913156421
979,-0.0127134323120117,0.000122975924070853
980,-0.0126519203186035,0.000141982217424567
981,-0.012578010559082,0.000139907630140593
982,-0.0123448371887207,0.00017547607421875
983,-0.0122756958007812,0.000156913481149316
984,-0.0118536949157715,0.000164552351126271
985,-0.0117378234863281,0.000112120630429486
986,-0.0116424560546875,0.000132557299452927
987,-0.0115580558776855,0.000168843452425827
988,-0.0116152763366699,0.000169512759424811
989,-0.011322021484375,0.000149896853226811
990,-0.0115413665771484,0.00022046590632601
991,-0.0114302635192871,0.000234960269827937
992,-0.01116943359375,0.000220086048687832
993,-0.0114398002624512,0.000214816065922814
994,-0.010932445526123,0.000172076782296803
995,-0.0109877586364746,0.000216822003345239
996,-0.010688304901123,0.000214252226564587
997,-0.0108094215393066,0.000246933518959383
998,-0.0104532241821289,0.000251835034385667
999,-0.0109477043151855,0.000181539114279661
1000,-0.010648250579834,0.000258387668180482
1001,-0.0104093551635742,0.000256288328571632
1002,-0.0106430053710937,0.000190706250905669
1003,-0.010429859161377,0.000217111242001623
1004,-0.0103559494018555,0.000258788623899412
1005,-0.0104851722717285,0.00025377056733029
1006,-0.0107526779174805,0.00019586808190766
1007,-0.0105204582214355,0.000267457617733809
1008,-0.0105361938476562,0.000276959894474866
1009,-0.00998115539550781,0.00031966730629265
1010,-0.0101513862609863,0.000333404322783445
1011,-0.0106391906738281,0.000279236100410382
1012,-0.0107250213623047,0.000197334551336328
1013,-0.0103912353515625,0.000248336499004513
1014,-0.0109071731567383,0.000184860363313545
1015,-0.0107583999633789,0.000243166380367569
1016,-0.010777473449707,0.000271976144329968
1017,-0.0114154815673828,0.0002510972136558
1018,-0.0108084678649902,0.000206033384941736
1019,-0.011113166809082,0.000259076646942255
1020,-0.0108942985534668,0.000251017515203279
1021,-0.0113844871520996,0.000302950374393744
1022,-0.0111703872680664,0.000255911888128053
1023,-0.0112743377685547,0.00031295051919707
1024,-0.011502742767334,0.000310470427694333
1025,-0.011871337890625,0.000385907113755508
1026,-0.012211799621582,0.000235227206475912
1027,-0.0118999481201172,0.000233020712996178
1028,-0.012906551361084,0.00023579103273742
1029,-0.0122265815734863,0.000358175494210983
1030,-0.0125527381896973,0.000293155203535478
1031,-0.0125880241394043,0.000343518731025884
1032,-0.0127406120300293,0.000431642730306436
1033,-0.0129709243774414,0.000437909966636315
1034,-0.0135135650634766,0.000383505159304414
1035,-0.0136995315551758,0.000318172965955533
1036,-0.014129638671875,0.000432652934278848
1037,-0.0137453079223633,0.00045520544471077
1038,-0.0142178535461426,0.000446694371591322
1039,-0.0142583847045898,0.000403763676305081
1040,-0.0147767066955566,0.00040566036700667
1041,-0.0146679878234863,0.000386274595066851
1042,-0.0146017074584961,0.000364717777332695
1043,-0.0150833129882812,0.00070080463679786
1044,-0.0156879425048828,0.000627642332182206
1045,-0.0154538154602051,0.000485703998053001
1046,-0.0167241096496582,0.000395295415761685
1047,-0.0167765617370605,0.000503496688363865
1048,-0.0163908004760742,0.000522502135497445
1049,-0.0160956382751465,0.000479606217656522
1050,-0.0167779922485352,0.000439915810834358
1051,-0.0170426368713379,0.000589614496773684
1052,-0.0173735618591309,0.000678190522362994
1053,-0.0167531967163086,0.000589725548066844
1054,-0.0184187889099121,0.000558302806899283
1055,-0.0174965858459473,0.000658463601294096
1056,-0.0184292793273926,0.000646352020412394
1057,-0.018674373626709,0.000759306842684757
1058,-0.019629955291748,0.000788452800461659
1059,-0.0202732086181641,0.000880988621163846
1060,-0.0201249122619629,0.000799486287869145
1061,-0.0195474624633789,0.000795636485000792
1062,-0.0187983512878418,0.000645371921969275
1063,-0.0186381340026855,0.000991938657418519
1064,-0.019141674041748,0.000656593512422714
1065,-0.0184798240661621,0.000807743567711347
1066,-0.0163493156433105,0.00121513527411228
1067,-0.0181684494018555,0.000921326391188864
1068,-0.0191745758056641,0.000747388665926966
1069,-0.018409252166748,0.00092485759829468
1070,-0.0174393653869629,0.000957344621812334
1071,-0.0188593864440918,0.00109385404773088
1072,-0.017059326171875,0.000681230598657934
1073,-0.0165462493896484,0.000761163552005873
1074,-0.0179109573364258,0.000720058844530578
1075,-0.0179934501647949,0.000835322892778709
1076,-0.0189728736877441,0.000972351292598231
1077,-0.0180249214172363,0.000971857299099193
1078,-0.0187187194824219,0.00093467089332009
1079,-0.0190010070800781,0.00116978797241838
1080,-0.0171542167663574,0.00184214728815455
1081,-0.0196423530578613,0.00152652726703775
1082,-0.0182843208312988,0.00141726143064783
1083,-0.0178861618041992,0.00113501187277352
1084,-0.0190315246582031,0.00107295438744923
1085,-0.0189175605773926,0.00160180950586068
1086,-0.0196247100830078,0.00148587232912112
1087,-0.0192914009094238,0.00145863169501731
1088,-0.0199241638183594,0.00158246958511663
1089,-0.021268367767334,0.00152397036403184
1090,-0.021430492401123,0.00134325019002257
1091,-0.0243711471557617,0.000792080345139184
1092,-0.0242891311645508,0.000953399618640949
1093,-0.0211291313171387,0.00167974943224262
1094,-0.0204100608825684,0.0019295883597262
1095,-0.0238990783691406,0.00222066499783037
1096,-0.027496337890625,0.00247173544083454
1097,-0.0256409645080566,0.0024122885973368
1098,-0.0234189033508301,0.00162289255374858
1099,-0.0262718200683594,0.00169640406612394
1100,-0.0241212844848633,0.00158991895961714
