Wavelength (nm),Absorbance (AU),Std.Dev.
190,0.359645843505859,0.000104719780207118
191,0.34686803817749,0.0000995984874997474
192,0.33485746383667,0.0000799907657211005
193,0.323559284210205,0.0000741063855749313
194,0.31341552734375,0.0000546493662080985
195,0.304270267486572,0.0000525257287224859
196,0.296029567718506,0.0000586771325168429
197,0.288548469543457,0.0000609913683818374
198,0.281616687774658,0.0000534706487884795
199,0.27512788772583,0.000052359890103559
200,0.269047260284424,0.0000564886020465219
201,0.263295650482178,0.0000456171445583397
202,0.258065700531006,0.0000363516018664543
203,0.253148078918457,0.0000248664977503441
204,0.248471260070801,0.0000343347588276705
205,0.244051933288574,0.0000478669460843435
206,0.239701271057129,0.0000412836072515909
207,0.235496044158936,0.0000338428433590681
208,0.231508731842041,0.000039448729740669
209,0.2275710105896,0.0000578212981842961
210,0.223840236663818,0.0000404398956554718
211,0.220100879669189,0.0000552133367358389
212,0.216629505157471,0.000044834105073659
213,0.213324546813965,0.0000605010339921796
214,0.210111618041992,0.0000441132361234233
215,0.206995487213135,0.0000422956172075605
216,0.203985691070557,0.0000502152771640807
217,0.201090335845947,0.0000489391521205802
218,0.198226928710937,0.0000449885182236305
219,0.195436000823975,0.0000466618721875193
220,0.192739009857178,0.0000399555680563522
221,0.190123558044434,0.0000391071883986824
222,0.187585353851318,0.000032264121398203
223,0.18506908416748,0.0000364016062429159
224,0.182689666748047,0.0000365753061432199
225,0.180267810821533,0.0000383179528312079
226,0.177946090698242,0.0000353832771293064
227,0.175748825073242,0.0000371060815992
228,0.173494338989258,0.0000469073028137854
229,0.171329975128174,0.0000518460373711424
230,0.169136524200439,0.0000482513497189558
231,0.167057037353516,0.0000420536853034007
232,0.16495418548584,0.0000485344339370707
233,0.162864685058594,0.0000381387761370133
234,0.160770893096924,0.0000429219664656547
235,0.158752918243408,0.0000408635812485286
236,0.156748294830322,0.0000462568910840162
237,0.154861927032471,0.00003594273752025
238,0.152982234954834,0.0000476049726724288
239,0.151265144348145,0.000054081616784856
240,0.149614334106445,0.0000339401220270976
241,0.148094177246094,0.0000264682208648415
242,0.146626949310303,0.0000373229798194485
243,0.145271778106689,0.0000456607371488538
244,0.143994331359863,0.0000406781504377734
245,0.142729759216309,0.0000272981464490863
246,0.141647338867187,0.0000375847815227113
247,0.140585899353027,0.00003233979071701
248,0.139530658721924,0.0000411284142468431
249,0.138442039489746,0.0000428404419300141
250,0.137564659118652,0.0000352980296618671
251,0.136553287506104,0.0000440539215819172
252,0.135567665100098,0.000050091737795307
253,0.134575843811035,0.0000426156120357781
254,0.133600234985352,0.0000380111302200292
255,0.132637977600098,0.0000417484479844472
256,0.131548881530762,0.0000603910072288039
257,0.130487442016602,0.0000426122772459963
258,0.129403591156006,0.0000460277548979126
259,0.128158569335937,0.0000349931554607401
260,0.126994609832764,0.0000481357605071765
261,0.125778675079346,0.0000444891879531795
262,0.124308586120605,0.0000353294182140836
263,0.122859477996826,0.0000490690690364725
264,0.121476650238037,0.0000442624589743567
265,0.119948387145996,0.0000492344468223245
266,0.118362426757812,0.0000451537345930485
267,0.116757869720459,0.0000576006655522976
268,0.114981174468994,0.0000441454388609281
269,0.113303661346436,0.0000609148971631392
270,0.111710071563721,0.0000628973336401218
271,0.109941959381104,0.0000496139840201171
272,0.108220100402832,0.0000442431912489457
273,0.106546878814697,0.0000519522782402166
274,0.104883670806885,0.0000548497473706773
275,0.103185653686523,0.0000422741084538154
276,0.101493358612061,0.000053286419085308
277,0.0998268127441406,0.0000514277220257292
278,0.0981850624084473,0.0000455036083780593
279,0.0966029167175293,0.0000351212498251348
280,0.0949902534484863,0.0000335654072196542
281,0.093266487121582,0.0000381953707281738
282,0.0916934013366699,0.0000328195969505028
283,0.0900940895080566,0.0000561545351497496
284,0.0885324478149414,0.0000519796247128808
285,0.0869684219360352,0.0000354811386163172
286,0.0853219032287598,0.0000330654853036937
287,0.0837979316711426,0.0000378034442026064
288,0.0823249816894531,0.0000378920561200517
289,0.0808897018432617,0.0000341438380592503
290,0.0794143676757813,0.0000316926365465305
291,0.078035831451416,0.0000371696017655818
292,0.076655387878418,0.0000352287150487783
293,0.0752940177917481,0.0000346347609811246
294,0.0740103721618652,0.000025964648037075
295,0.072810173034668,0.0000352061180515535
296,0.0716104507446289,0.0000422209618018697
297,0.0704069137573242,0.0000326232943053106
298,0.0693860054016113,0.00004213875553898
299,0.0681147575378418,0.0000528719741709804
300,0.0671148300170898,0.000047742092638265
301,0.0660777091979981,0.0000407667884096043
302,0.0649690628051758,0.0000319107036192014
303,0.064056396484375,0.0000466204350426061
304,0.0630683898925781,0.0000453522024609553
305,0.0620999336242676,0.00003586199034808
306,0.0612092018127441,0.0000477587586229875
307,0.060359001159668,0.0000429391794771299
308,0.0594220161437988,0.0000473211331500279
309,0.0585212707519531,0.0000596027373962393
310,0.0576515197753906,0.0000576203992421267
311,0.0568094253540039,0.0000438547629538295
312,0.0560111999511719,0.0000376029260053337
313,0.0552277565002441,0.0000409677774022977
314,0.0543966293334961,0.000054742899469628
315,0.0535659790039063,0.0000595798440835467
316,0.0527496337890625,0.0000429451362198202
317,0.0519828796386719,0.000047699210510476
318,0.0511560440063477,0.0000361571817261761
319,0.0504107475280762,0.0000526057506725223
320,0.0495986938476563,0.0000550793360944132
321,0.0487766265869141,0.0000437067492984358
322,0.0480260848999023,0.0000405276521400272
323,0.0473752021789551,0.0000513226104477561
324,0.0465683937072754,0.0000592852618700591
325,0.0458388328552246,0.0000484429943774082
326,0.0450940132141113,0.0000390810161251093
327,0.0444536209106445,0.000043782117020813
328,0.043668270111084,0.0000428921583909
329,0.0430788993835449,0.0000493082823825215
330,0.042259693145752,0.000040203056748066
331,0.0416135787963867,0.0000590604737110584
332,0.0409393310546875,0.0000491685936767584
333,0.040194034576416,0.0000462224700908804
334,0.0396184921264648,0.0000400897845450744
335,0.0388498306274414,0.0000538171522639009
336,0.0381841659545898,0.0000505604809412278
337,0.0375299453735352,0.0000676369599399458
338,0.0369448661804199,0.0000625620527882501
339,0.0362691879272461,0.00006467958143402
340,0.0356512069702148,0.0000528773494695548
341,0.0350327491760254,0.0000524304085060252
342,0.0343694686889648,0.0000487925821076151
343,0.0338883399963379,0.0000359704031129721
344,0.0332927703857422,0.0000320697361611941
345,0.0327119827270508,0.0000535959450771425
346,0.0320472717285156,0.0000430574976763078
347,0.03155517578125,0.0000532469346154254
348,0.0308694839477539,0.0000461042601597841
349,0.030487060546875,0.0000411615711867908
350,0.0299906730651855,0.0000375908306567017
351,0.0293922424316406,0.0000382927255876805
352,0.0288443565368652,0.0000519872791474605
353,0.028378963470459,0.0000510961664733952
354,0.0278687477111816,0.0000571667896347659
355,0.0273566246032715,0.000043984189403793
356,0.0268411636352539,0.000039310155707286
357,0.0263195037841797,0.0000523729160321385
358,0.0258727073669434,0.0000453196029360222
359,0.0254368782043457,0.000047091139894866
360,0.0249843597412109,0.0000612378480115462
361,0.0244045257568359,0.0000533130812266382
362,0.0238051414489746,0.0000587497437715967
363,0.0233502388000488,0.0000557868907775764
364,0.0228543281555176,0.0000443086673306091
365,0.0224742889404297,0.0000461301444662079
366,0.0222792625427246,0.0000561099776958137
367,0.022007942199707,0.0000559842158929393
368,0.0213942527770996,0.0000677830351908307
369,0.0210914611816406,0.0000891188110514952
370,0.0206732749938965,0.0000813437233538857
371,0.0203166007995605,0.0000609158303171971
372,0.0200386047363281,0.0000580910182738324
373,0.0195684432983398,0.0000618290676399625
374,0.0194172859191895,0.0000737727340920018
375,0.0190958976745605,0.0000908221459652301
376,0.0186314582824707,0.0000745545227996615
377,0.0184745788574219,0.000049748994534559
378,0.0182476043701172,0.0000567946885428154
379,0.0176491737365723,0.0000948486522971567
380,0.0174717903137207,0.0000837389046421631
381,0.0172257423400879,0.000098515064648098
382,0.0169916152954102,0.000064702427406248
383,0.0164427757263184,0.000051563495554466
384,0.0163578987121582,0.0000758410961661779
385,0.0159149169921875,0.0000936156554550784
386,0.0157070159912109,0.0000884298334604541
387,0.015408992767334,0.0000705670664395384
388,0.0150976181030273,0.000106192395242233
389,0.0145153999328613,0.0000738789894287597
390,0.0144476890563965,0.0000825382945282377
391,0.0142388343811035,0.0000737434484925663
392,0.0141181945800781,0.0000900755362710447
393,0.0136117935180664,0.0000532981520706865
394,0.0131654739379883,0.0000563808271448203
395,0.013066291809082,0.0000623673108752283
396,0.0128426551818848,0.0000763862766419743
397,0.0128240585327148,0.0000549129282020923
398,0.0125284194946289,0.000078672351046859
399,0.0119094848632812,0.0000664105954089585
400,0.0117440223693848,0.0000636430251822282
401,0.0115537643432617,0.0000747570569827304
402,0.0113210678100586,0.0000694907340518386
403,0.0112175941467285,0.0000461670968721757
404,0.0109496116638184,0.0000409892782477187
405,0.0107913017272949,0.0000629858387983642
406,0.0102601051330566,0.0000728266321711284
407,0.0101585388183594,0.0000689998361599927
408,0.0102686882019043,0.0000804626499350512
409,0.00984811782836914,0.0000982029891105624
410,0.00957918167114258,0.0000778107076802569
411,0.00940418243408203,0.0000652361332642499
412,0.00942420959472656,0.0000603279100912844
413,0.00904989242553711,0.0000714158169726227
414,0.00871086120605469,0.0000475237069069493
415,0.00881052017211914,0.0000432741214925325
416,0.0086522102355957,0.0000628720235683614
417,0.00825595855712891,0.0000570652764796419
418,0.00817489624023438,0.0000385685808420337
419,0.00793886184692383,0.0000280605601879206
420,0.00803518295288086,0.000040096164600124
421,0.00808238983154297,0.000041872167502325
422,0.00745773315429688,0.0000387758336117643
423,0.00723171234130859,0.0000494521745348946
424,0.00714921951293945,0.0000739666504481246
425,0.00682163238525391,0.0000646021966558454
426,0.00687742233276367,0.0000583555955938528
427,0.00700616836547852,0.0000581135199532632
428,0.00653839111328125,0.0000515105533418619
429,0.00688791275024414,0.0000509948303854836
430,0.0063471794128418,0.0000531197450318665
431,0.00581216812133789,0.000066161907466707
432,0.00591230392456055,0.0000553706297569076
433,0.00603055953979492,0.0000713584855609421
434,0.00558662414550781,0.000067436643470298
435,0.00544166564941406,0.0000491720618305083
436,0.00565767288208008,0.0000636858824431002
437,0.00540828704833984,0.0000424398464891611
438,0.0054163932800293,0.0000475260990599173
439,0.00524330139160156,0.000068782003932332
440,0.00524377822875977,0.00006909862379695
441,0.0053858757019043,0.0000467665199056809
442,0.00458240509033203,0.0000555397602434563
443,0.00489902496337891,0.0000538731034951128
444,0.00447893142700195,0.0000705847857283147
445,0.00458717346191406,0.000056465452835364
446,0.00447607040405273,0.0000384024173578279
447,0.00417995452880859,0.0000377823871380763
448,0.00427722930908203,0.0000302702410021261
449,0.00419855117797852,0.0000367721531578027
450,0.00395965576171875,0.0000510650075572374
451,0.00397253036499023,0.0000477230386718735
452,0.0038151741027832,0.0000421016428460527
453,0.00365686416625977,0.0000462003287674811
454,0.00375747680664062,0.0000478217986655461
455,0.00353336334228516,0.0000548445653865405
456,0.00347661972045898,0.0000692498244674541
457,0.003631591796875,0.0000581516550755821
458,0.0034637451171875,0.0000649532027528218
459,0.00319194793701172,0.0000434903198329758
460,0.00318193435668945,0.0000479748895743817
461,0.00309085845947266,0.000051216173292729
462,0.00298166275024414,0.0000572065495433385
463,0.00332546234130859,0.0000653823559686266
464,0.00302696228027344,0.0000683891548702518
465,0.00284337997436523,0.0000514509282360176
466,0.00250387191772461,0.0000539332126796213
467,0.00267982482910156,0.0000711079165389241
468,0.00267410278320312,0.0000641075594890058
469,0.0025019645690918,0.0000476682160935559
470,0.00261688232421875,0.0000486922889242671
471,0.00257539749145508,0.0000625511487266792
472,0.00249004364013672,0.0000663112321510969
473,0.0024104118347168,0.0000635912007887717
474,0.00232887268066406,0.0000580048443008963
475,0.00241947174072266,0.0000445466469269103
476,0.00215625762939453,0.0000531197450318665
477,0.00206899642944336,0.0000569565967591667
478,0.00214481353759766,0.0000687026209727552
479,0.00226879119873047,0.0000882084302868348
480,0.00199604034423828,0.0000701518056167717
481,0.00186872482299805,0.000070234406730184
482,0.00188207626342773,0.0000449960986418185
483,0.00192117691040039,0.0000421488715110717
484,0.00158405303955078,0.0000406452984040179
485,0.00541400909423828,0.0000360619430521646
486,-0.00093841552734375,0.0000391391529657952
487,0.000965595245361328,0.0000546826408081572
488,0.000934123992919922,0.0000479144237255371
489,0.00156068801879883,0.0000274988727242651
490,0.00147771835327148,0.0000347968628636846
491,0.00131845474243164,0.0000510226900210807
492,0.00136756896972656,0.0000486023159343229
493,0.00138235092163086,0.0000602930371020269
494,0.00115537643432617,0.00005927471400004
495,0.00126743316650391,0.0000503735071038981
496,0.00109720230102539,0.0000748740632110234
497,0.00100135803222656,0.0000688860552397962
498,0.00114965438842773,0.0000749469097304859
499,0.00101804733276367,0.0000681076379910313
500,0.000791072845458984,0.0000552339233647182
501,0.0010371208190918,0.0000651349783917617
502,0.000916957855224609,0.0000638766045264524
503,0.000911235809326172,0.0000652727196496
504,0.000825881958007813,0.0000672035959999829
505,0.000883579254150391,0.0000751135832086871
506,0.000638484954833984,0.000057836042622945
507,0.000604629516601563,0.0000503023652244108
508,0.000608921051025391,0.0000530340679679843
509,0.000471115112304688,0.0000630814290733177
510,0.000555992126464844,0.000079790117886932
511,0.000520706176757813,0.0000726249760706099
512,0.000557422637939453,0.0000592056269916179
513,0.000440120697021484,0.0000583224672371699
514,0.0003509521484375,0.0000612025647277286
515,0.000369548797607422,0.0000662786497264635
516,0.000343799591064453,0.0000546306403391711
517,0.000255107879638672,0.0000557960604717639
518,0.000213623046875,0.0000805713708930146
519,0.000131607055664062,0.0000594824492062334
520,0.0000939369201660156,0.00006982530861034
521,0.000142097473144531,0.0000531764300668046
522,0.0000119209289550781,0.0000500826586819431
523,-0.00000715255737304688,0.0000445759862448203
524,-0.000026702880859375,0.000050934601567179
525,-0.0000853538513183594,0.0000476968270396182
526,-0.000123500823974609,0.0000424565855374061
527,-0.0000591278076171875,0.0000464224912714834
528,-0.0000782012939453125,0.0000638605844222382
529,-0.000111579895019531,0.0000544106509895682
530,-0.000174045562744141,0.0000518789186107569
531,-0.000207901000976562,0.0000604060654530072
532,-0.000135421752929687,0.000058616069551128
533,-0.000148296356201172,0.0000525354676325211
534,-0.000266075134277344,0.0000593753217906843
535,-0.000420570373535156,0.000069606793131273
536,-0.000440120697021484,0.0000687307462567415
537,-0.000361919403076172,0.0000610686746591073
538,-0.000323295593261719,0.0000517428741793888
539,-0.000473976135253906,0.0000534610802390059
540,-0.000458717346191406,0.0000534206608016786
541,-0.000476360321044922,0.0000535471356299931
542,-0.000477790832519531,0.0000529257025897899
543,-0.000590324401855469,0.0000689520380664559
544,-0.000578403472900391,0.0000682327148688634
545,-0.000723361968994141,0.000052092140765928
546,-0.000576496124267578,0.0000382385049832831
547,-0.000485420227050781,0.0000299971885443718
548,-0.000760555267333984,0.0000345270934245683
549,-0.000743389129638672,0.0000438430958327202
550,-0.000788211822509766,0.0000402602792938144
551,-0.000733852386474609,0.0000443458557128906
552,-0.000759601593017578,0.0000567606491699388
553,-0.000739097595214844,0.0000487447936541101
554,-0.000875473022460938,0.0000384172165480793
555,-0.000700473785400391,0.0000436520914396092
556,-0.000870227813720703,0.0000430865317306363
557,-0.000928401947021484,0.0000450781381318724
558,-0.000978946685791016,0.0000387149489024819
559,-0.000931262969970703,0.00004992692263583
560,-0.000820159912109375,0.0000491350555698906
561,-0.00100278854370117,0.000043237325998427
562,-0.00103616714477539,0.0000403843352122508
563,-0.000944137573242188,0.0000470295378233089
564,-0.000940799713134766,0.0000349460156642442
565,-0.00112438201904297,0.0000267889559915593
566,-0.00108671188354492,0.0000307513758418774
567,-0.00101995468139648,0.000052913887018513
568,-0.00109672546386719,0.0000528805743864284
569,-0.00106287002563477,0.0000436468823594666
570,-0.00121259689331055,0.0000401152986770568
571,-0.0011439323425293,0.0000372230887317562
572,-0.00151681900024414,0.000044538990013296
573,-0.00104093551635742,0.0000355467629729755
574,-0.00121879577636719,0.0000314595099419163
575,-0.00158023834228516,0.0000278210066841262
576,-0.00104331970214844,0.0000318447262898712
577,-0.00121021270751953,0.0000312673945346752
578,-0.0015716552734375,0.0000328005394586509
579,-0.00142097473144531,0.0000281419781337099
580,-0.000977993011474609,0.0000339928377544815
581,-0.000837326049804688,0.0000289430728111534
582,-0.00188302993774414,0.0000215432658653182
583,-0.00191974639892578,0.0000278061896588639
584,-0.000972270965576172,0.0000262049026242799
585,-0.00126123428344727,0.0000253588169592416
586,-0.00169563293457031,0.0000460141680977433
587,-0.00109481811523437,0.0000488926695607063
588,-0.00169086456298828,0.0000388205193272545
589,-0.00164604187011719,0.0000311289216215434
590,-0.00146150588989258,0.0000284658204845885
591,-0.00161170959472656,0.0000198840237348065
592,-0.000893115997314453,0.0000249890651664965
593,-0.00144004821777344,0.0000211370542269077
594,-0.00135231018066406,0.0000290102609078873
595,-0.00154685974121094,0.0000289720269330284
596,-0.00172185897827148,0.0000342386014195446
597,-0.00138568878173828,0.0000401096302725242
598,-0.00145912170410156,0.0000458607293645652
599,-0.00138998031616211,0.000036590067565237
600,-0.00147724151611328,0.0000306903152561779
601,-0.00164461135864258,0.0000354891480835892
602,-0.00159406661987305,0.0000361524650593367
603,-0.00168323516845703,0.0000276873679998092
604,-0.00193452835083008,0.0000222260597409854
605,-0.00143337249755859,0.0000364842752355524
606,-0.00193548202514648,0.0000339459833727983
607,-0.00177717208862305,0.0000290973246574716
608,-0.00189924240112305,0.0000251178244666235
609,-0.00192165374755859,0.0000239085219129976
610,-0.00173139572143555,0.0000267905473674203
611,-0.00201272964477539,0.0000279524813558875
612,-0.00193071365356445,0.0000314730585909352
613,-0.00190925598144531,0.0000249275717485062
614,-0.00218772888183594,0.0000231959345840382
615,-0.0020294189453125,0.0000213451215275081
616,-0.0023808479309082,0.0000287306753660129
617,-0.002166748046875,0.0000402016428153191
618,-0.0020909309387207,0.0000401273413780443
619,-0.00198173522949219,0.0000370040689240792
620,-0.00186920166015625,0.0000322817347423461
621,-0.00213861465454102,0.0000309512865332153
622,-0.00192403793334961,0.0000424679643215414
623,-0.00230789184570312,0.0000445861866994721
624,-0.0022120475769043,0.000048750624022369
625,-0.00239372253417969,0.0000344000914801734
626,-0.00228643417358398,0.0000334823223025652
627,-0.00219440460205078,0.0000335671006889028
628,-0.00228166580200195,0.000024533376054014
629,-0.00217008590698242,0.0000279239968167727
630,-0.00242948532104492,0.000028220643507003
631,-0.00240182876586914,0.0000252599955802168
632,-0.00234699249267578,0.000029861867546738
633,-0.00226974487304687,0.0000277668095343806
634,-0.00237178802490234,0.0000278164091416077
635,-0.00241327285766602,0.0000374058919858729
636,-0.00231075286865234,0.0000370171238085651
637,-0.00243139266967773,0.0000341638100841954
638,-0.00262546539306641,0.0000282367529055861
639,-0.00270652770996094,0.0000335874156599104
640,-0.00252056121826172,0.0000381350498640675
641,-0.00234079360961914,0.000033641528941454
642,-0.00212812423706055,0.0000441158132074695
643,-0.00212860107421875,0.0000374598002930863
644,-0.00231122970581055,0.000030854717290567
645,-0.00249147415161133,0.000031069517844573
646,-0.00251579284667969,0.0000348360466938973
647,-0.00243854522705078,0.000031276483101136
648,-0.00252866744995117,0.0000391906771773471
649,-0.00257682800292969,0.000052140131860564
650,-0.00254440307617187,0.0000561697171120728
651,-0.00255012512207031,0.0000529546932692597
652,-0.00264120101928711,0.0000556338400343801
653,-0.00249004364013672,0.0000486572542952503
654,-0.00291156768798828,0.0000479250997128833
655,0.00110912322998047,0.0000177829735977252
656,-0.00282621383666992,0.0000253520913744637
657,-0.00747966766357422,0.0000354747297404706
658,-0.00292301177978516,0.0000343976127600117
659,-0.00282859802246094,0.0000585957010883096
660,-0.00272941589355469,0.0000399598358257258
661,-0.00272655487060547,0.0000469751159676756
662,-0.00273227691650391,0.000057911671645599
663,-0.00274229049682617,0.0000461867927335121
664,-0.00268936157226562,0.0000422472071125478
665,-0.00281190872192383,0.0000397473161408218
666,-0.00283527374267578,0.0000352948087448368
667,-0.00274944305419922,0.0000455735102700703
668,-0.00287675857543945,0.0000349150964611139
669,-0.00283575057983398,0.0000249879277747585
670,-0.00285577774047852,0.000032899172307653
671,-0.00275707244873047,0.0000320582128791268
672,-0.00277948379516602,0.0000284313530791294
673,-0.00295400619506836,0.0000303560317425147
674,-0.0028376579284668,0.0000375196917376451
675,-0.00287342071533203,0.0000470404146390477
676,-0.00283908843994141,0.0000391202679692961
677,-0.00279474258422852,0.0000394033138551075
678,-0.0028681755065918,0.0000329854495257337
679,-0.00277566909790039,0.0000337318056933926
680,-0.00288534164428711,0.000023874617957713
681,-0.00288915634155273,0.0000203837427908389
682,-0.00290107727050781,0.0000656824795349558
683,-0.00288486480712891,0.0000406837396313196
684,-0.00281190872192383,0.0000415854221092243
685,-0.00281238555908203,0.0000455323310702559
686,-0.00289487838745117,0.0000293855130279281
687,-0.00293827056884766,0.0000289317777613963
688,-0.00289773941040039,0.0000312446615522639
689,-0.00285243988037109,0.0000241021019632734
690,-0.00290107727050781,0.0000354611070334641
691,-0.00283098220825195,0.0000277483788747933
692,-0.0029454231262207,0.0000315623338100284
693,-0.00289106369018555,0.0000339794573809049
694,-0.00300264358520508,0.0000350280629797101
695,-0.00291156768798828,0.0000352617773823345
696,-0.00298786163330078,0.0000361013283362345
697,-0.00284719467163086,0.0000283678035951404
698,-0.00296115875244141,0.0000402899182477217
699,-0.00292015075683594,0.0000341854332773384
700,-0.00301599502563477,0.0000298480636525294
701,-0.00297403335571289,0.0000288890130623111
702,-0.00292778015136719,0.0000331161604066892
703,-0.00292444229125977,0.0000318259780789332
704,-0.00298070907592773,0.0000299065674069323
705,-0.00300884246826172,0.0000261527902420119
706,-0.00284624099731445,0.0000383060832567478
707,-0.00286149978637695,0.000028825486556134
708,-0.00309419631958008,0.0000319507583528349
709,-0.00307750701904297,0.0000343273079775352
710,-0.00294971466064453,0.0000362309960082888
711,-0.00303983688354492,0.0000443407281351765
712,-0.00305557250976562,0.0000377786257129235
713,-0.00298452377319336,0.0000354835416463309
714,-0.00301837921142578,0.0000352722540902407
715,-0.00312423706054687,0.0000369025444332552
716,-0.00314569473266602,0.0000471333692400416
717,-0.00317096710205078,0.0000417743097971326
718,-0.00305509567260742,0.0000378717988045974
719,-0.00309324264526367,0.0000291427095720239
720,-0.00316619873046875,0.0000338638322122281
721,-0.00322914123535156,0.0000296224890404958
722,-0.00322484970092773,0.000040318830496201
723,-0.00313806533813477,0.0000343835633038096
724,-0.00320768356323242,0.0000385781595285944
725,-0.00322961807250977,0.0000520353669537914
726,-0.00332260131835937,0.0000458867510447411
727,-0.00334882736206055,0.0000428503922507346
728,-0.00330400466918945,0.0000386561740865922
729,-0.0032505989074707,0.0000502774983142572
730,-0.00340557098388672,0.0000442907031428322
731,-0.00343084335327148,0.0000330525894157458
732,-0.00346469879150391,0.000036400044645942
733,-0.00336885452270508,0.0000340554881776354
734,-0.00343561172485352,0.0000478942514787427
735,-0.00355768203735352,0.0000464408548415808
736,-0.00351667404174805,0.0000482631289710706
737,-0.0035858154296875,0.0000434589396450167
738,-0.0037074089050293,0.0000483913368630155
739,-0.00350332260131836,0.0000360721873628805
740,-0.00356674194335937,0.0000433803898646141
741,-0.00360774993896484,0.0000408941729698128
742,-0.00351858139038086,0.0000369648766070726
743,-0.0035862922668457,0.0000304331767189785
744,-0.00360250473022461,0.0000265116743004641
745,-0.00366830825805664,0.0000331564732860422
746,-0.00362110137939453,0.0000447947841359518
747,-0.00358724594116211,0.0000437963962677194
748,-0.00355339050292969,0.0000415779034391453
749,-0.0034480094909668,0.00004937510048701
750,-0.00344753265380859,0.0000568657050616067
751,-0.00348377227783203,0.0000377327061341571
752,-0.00355625152587891,0.0000360792778740443
753,-0.00351524353027344,0.0000374423455376945
754,-0.00348091125488281,0.0000365644254926316
755,-0.00357961654663086,0.0000312082543369712
756,-0.0034637451171875,0.0000428470757339111
757,-0.00343179702758789,0.0000375817565905919
758,-0.00351810455322266,0.0000475786959963471
759,-0.00352573394775391,0.0000480873193186902
760,-0.00340747833251953,0.0000381760188622682
761,-0.00350618362426758,0.0000404511391103788
762,-0.00354957580566406,0.0000364265826899511
763,-0.00334930419921875,0.0000383994568353429
764,-0.00330781936645508,0.0000337419151258953
765,-0.00336599349975586,0.0000408058117023746
766,-0.00353622436523437,0.0000494406785739483
767,-0.00354623794555664,0.0000544753845791596
768,-0.00328207015991211,0.0000382414779661039
769,-0.00334835052490234,0.0000416448401298799
770,-0.0033717155456543,0.0000539395360655948
771,-0.00341987609863281,0.0000488984822971125
772,-0.0034794807434082,0.0000541855725354864
773,-0.00337505340576172,0.0000440216518977045
774,-0.00344944000244141,0.0000435569276682634
775,-0.00339412689208984,0.0000377168848184813
776,-0.00333166122436523,0.0000328308529959037
777,-0.00340032577514648,0.0000312755743633396
778,-0.00337076187133789,0.0000330654853036937
779,-0.00333023071289062,0.0000352480723734034
780,-0.00344991683959961,0.0000364796008606231
781,-0.00334739685058594,0.000054557756416731
782,-0.00335168838500977,0.0000435438753388018
783,-0.00331544876098633,0.0000501405098635407
784,-0.00338125228881836,0.0000427800270411623
785,-0.00336885452270508,0.0000369448802093839
786,-0.00334835052490234,0.0000338159586175355
787,-0.00327014923095703,0.0000345526023091395
788,-0.00332164764404297,0.0000436390675733888
789,-0.0034480094909668,0.0000455348278394333
790,-0.00341272354125977,0.0000311006047422797
791,-0.00343513488769531,0.0000347846088647143
792,-0.00341606140136719,0.0000362137338110516
793,-0.00335359573364258,0.0000410253188780985
794,-0.00332021713256836,0.0000443535459679927
795,-0.00342130661010742,0.0000442547528908509
796,-0.00357532501220703,0.0000386112981711624
797,-0.00337600708007812,0.0000438793833554357
798,-0.00345420837402344,0.0000437769234126073
799,-0.0034632682800293,0.0000456731845326547
800,-0.00342082977294922,0.000046515458672551
801,-0.00340604782104492,0.0000332335316881234
802,-0.00347995758056641,0.0000461486243677862
803,-0.00342178344726562,0.0000399690810960691
804,-0.00347614288330078,0.0000447554286519206
805,-0.0034489631652832,0.0000511317534129625
806,-0.00347805023193359,0.0000401804278534297
807,-0.00359249114990234,0.0000355571557116439
808,-0.00357818603515625,0.000037168072435549
809,-0.00360012054443359,0.0000430264623860572
810,-0.0036005973815918,0.0000296368775048453
811,-0.00353431701660156,0.0000430647580250107
812,-0.00361108779907227,0.0000337856877115723
813,-0.00354576110839844,0.0000307254861709347
814,-0.00364208221435547,0.0000388153940712408
815,-0.00362396240234375,0.0000349899064792132
816,-0.0036773681640625,0.0000473079178086262
817,-0.00361537933349609,0.0000387802312112808
818,-0.00368595123291016,0.0000411000715119406
819,-0.00371885299682617,0.000039114455366765
820,-0.00364971160888672,0.0000495532239914739
821,-0.0036921501159668,0.0000396893540319153
822,-0.00370264053344727,0.0000443522643514074
823,-0.00376081466674805,0.0000415046962231599
824,-0.00381851196289062,0.0000472333621865837
825,-0.00376319885253906,0.0000569825391867287
826,-0.00376129150390625,0.0000544419833055359
827,-0.0038599967956543,0.0000375030227164821
828,-0.00381612777709961,0.0000395243069152734
829,-0.00391721725463867,0.0000408162580349125
830,-0.00396156311035156,0.0000349370681826356
831,-0.00404167175292969,0.0000345682274826452
832,-0.00397634506225586,0.000050698577041649
833,-0.00409030914306641,0.0000431063164645386
834,-0.0041041374206543,0.0000514133510273868
835,-0.00411891937255859,0.0000544910343782642
836,-0.00405263900756836,0.000044214916730227
837,-0.00412178039550781,0.0000308933812114014
838,-0.00417375564575195,0.000045427342849024
839,-0.00418424606323242,0.0000550638534978755
840,-0.004119873046875,0.0000393621781395421
841,-0.00409698486328125,0.0000474446981957731
842,-0.00411701202392578,0.0000389542689122677
843,-0.00411605834960938,0.0000471731508547279
844,-0.0040898323059082,0.0000491558750195257
845,-0.00406742095947266,0.0000541950131703827
846,-0.00406646728515625,0.0000573643226914794
847,-0.00399065017700195,0.0000591854614232113
848,-0.00402927398681641,0.0000561120038022183
849,-0.00405550003051758,0.0000465240121161304
850,-0.00398826599121094,0.0000558642764411756
851,-0.00399160385131836,0.0000634587674460754
852,-0.00390529632568359,0.0000507770006271396
853,-0.00393009185791016,0.0000581985563071809
854,-0.00399065017700195,0.0000604361706457324
855,-0.00398635864257812,0.0000503159238136663
856,-0.00393962860107422,0.0000447935151439224
857,-0.00391912460327148,0.0000574474996167874
858,-0.00392341613769531,0.0000433515526178248
859,-0.00396156311035156,0.0000361099873338122
860,-0.00394248962402344,0.0000470355808092411
861,-0.00392913818359375,0.0000600521455017836
862,-0.0037994384765625,0.0000605235788616981
863,-0.00379705429077148,0.0000551968619044741
864,-0.00390148162841797,0.0000488938321632713
865,-0.00390100479125977,0.0000476348149370367
866,-0.00379085540771484,0.0000558449400785727
867,-0.00382757186889648,0.0000418035551841924
868,-0.00383472442626953,0.0000554649964278997
869,-0.00379610061645508,0.0000419934921543666
870,-0.0038142204284668,0.0000453446815738422
871,-0.00383710861206055,0.000058401359731484
872,-0.00386571884155273,0.000051545854192087
873,-0.00369167327880859,0.0000448417115951457
874,-0.00373983383178711,0.0000421603333451891
875,-0.00378561019897461,0.0000359079276764854
876,-0.00382518768310547,0.0000509781072959601
877,-0.00394630432128906,0.0000647551181183703
878,-0.00373125076293945,0.0000639175265507356
879,-0.00382804870605469,0.0000466435956319682
880,-0.00370550155639648,0.0000517955789286566
881,-0.00379562377929687,0.0000644347989334445
882,-0.00383472442626953,0.0000406473961356474
883,-0.00378847122192383,0.0000513834907265632
884,-0.00374317169189453,0.0000520790446103286
885,-0.0037226676940918,0.0000476825237125155
886,-0.00374174118041992,0.0000446027574628583
887,-0.00379371643066406,0.000055470120451785
888,-0.00382709503173828,0.0000563152557046685
889,-0.00371885299682617,0.0000499474120146694
890,-0.00369691848754883,0.0000328273900083939
891,-0.00379323959350586,0.0000410585590730481
892,-0.00374078750610352,0.0000608336579659159
893,-0.00374603271484375,0.0000450125185017973
894,-0.00374841690063477,0.0000503712501757801
895,-0.00370550155639648,0.0000592094672735828
896,-0.00376033782958984,0.0000470537051105274
897,-0.00383472442626953,0.000054987408886436
898,-0.00376701354980469,0.0000601731841819572
899,-0.00388097763061523,0.000074725114396265
900,-0.00385141372680664,0.0000486432333783435
901,-0.00383806228637695,0.0000542610516237422
902,-0.00392770767211914,0.0000453020396290345
903,-0.00393772125244141,0.0000420969170653214
904,-0.0039677619934082,0.0000500974114056045
905,-0.00395631790161133,0.0000677041601154284
906,-0.00400638580322266,0.000069616592074537
907,-0.00391864776611328,0.0000526478754603709
908,-0.00399494171142578,0.0000391797974259199
909,-0.00398588180541992,0.0000503735071038981
910,-0.00399303436279297,0.0000597018403087217
911,-0.00414800643920898,0.0000449632409330499
912,-0.00415802001953125,0.000051433248263592
913,-0.00412654876708984,0.0000563828435183039
914,-0.00418567657470703,0.0000520451976224053
915,-0.00438737869262695,0.0000607242338897793
916,-0.00424480438232422,0.0000545181500547655
917,-0.00436639785766602,0.0000521194138543431
918,-0.00439739227294922,0.0000625893046311544
919,-0.00444650650024414,0.0000858227408226285
920,-0.00444984436035156,0.0000690690023416761
921,-0.00461816787719727,0.000070274862010729
922,-0.00468158721923828,0.0000557634502641438
923,-0.00477075576782227,0.0000480518436079826
924,-0.00482654571533203,0.0000645493811162991
925,-0.00498151779174805,0.0000703928583659902
926,-0.00499963760375977,0.0000707488804943747
927,-0.00506973266601563,0.0000758336007275814
928,-0.00527715682983398,0.0000622414064927986
929,-0.00529146194458008,0.0000551216330032766
930,-0.00551033020019531,0.0000578831995875638
931,-0.00552749633789063,0.000093170124938586
932,-0.00567865371704102,0.0000693416982384916
933,-0.00575399398803711,0.0000642386553067483
934,-0.0060124397277832,0.0000854430451887765
935,-0.00609207153320313,0.0000698806441548323
936,-0.00636386871337891,0.000070223075075169
937,-0.00641059875488281,0.0000996486987067911
938,-0.00664186477661133,0.000082247153252326
939,-0.00677251815795898,0.0000539247803448794
940,-0.00695514678955078,0.0000633673347106179
941,-0.00694608688354492,0.0000563192930746923
942,-0.00721502304077148,0.0000618235512098806
943,-0.00744819641113281,0.0000751438477585306
944,-0.00745105743408203,0.000076785589650132
945,-0.00762367248535156,0.0000823424738620184
946,-0.00784063339233398,0.0000773079365849675
947,-0.00805902481079102,0.0000810581093986473
948,-0.00846242904663086,0.0000995002742516281
949,-0.00863075256347656,0.000081632516069825
950,-0.00895881652832031,0.000092636587040858
951,-0.00913763046264648,0.0000983256257536469
952,-0.00949001312255859,0.0000636930225162705
953,-0.00978946685791016,0.0000800092398315892
954,-0.0101094245910645,0.0000834519520751358
955,-0.0105462074279785,0.0000987801291149736
956,-0.0107016563415527,0.0000746017791599101
957,-0.0112886428833008,0.0000760611319793336
958,-0.0113964080810547,0.0000887147811911411
959,-0.0116729736328125,0.000112436543679729
960,-0.0118551254272461,0.000133609737693025
961,-0.0119891166687012,0.0000790255994581744
962,-0.0119142532348633,0.000118251769710896
963,-0.0118322372436523,0.000130722974077289
964,-0.0119214057922363,0.0000911794443331738
965,-0.0119485855102539,0.000101152436426146
966,-0.0117096900939941,0.000112084121603327
967,-0.0116338729858398,0.000135914483730432
968,-0.0114617347717285,0.000149252315662184
969,-0.011268138885498,0.000141796330601656
970,-0.0110836029052734,0.000120232955288181
971,-0.0109658241271973,0.000181969456508912
972,-0.0107603073120117,0.000167670482573717
973,-0.0107040405273437,0.000143041610399861
974,-0.0105266571044922,0.00011813634579885
975,-0.0102496147155762,0.00010423228367463
976,-0.0101423263549805,0.000118853993235133
977,-0.00980377197265625,0.000141629466028796
978,-0.00950193405151367,0.000150251380983363
979,-0.00941753387451172,0.000129643596404773
980,-0.00938558578491211,0.000150535610369687
981,-0.00912046432495117,0.000159674246435674
982,-0.00886774063110352,0.000208110878375992
983,-0.00851297378540039,0.000159662854152096
984,-0.00827646255493164,0.000147684096785052
985,-0.00818920135498047,0.000149824025891903
986,-0.00767707824707031,0.000156329882400456
987,-0.0075078010559082,0.000154539384539525
988,-0.00740242004394531,0.000143783601519785
989,-0.0069732666015625,0.000176014282151174
990,-0.00727510452270508,0.000198593374128346
991,-0.0071110725402832,0.000217784638341317
992,-0.00656223297119141,0.000209370068625034
993,-0.00647401809692383,0.000175081722142989
994,-0.00621318817138672,0.000201494028415592
995,-0.00594568252563477,0.000263027456693143
996,-0.00554609298706055,0.000197311505503587
997,-0.00566577911376953,0.000243372005288735
998,-0.00512933731079102,0.000206028970587017
999,-0.00554656982421875,0.00016023147610987
1000,-0.00489139556884766,0.000257837981532578
1001,-0.00483989715576172,0.000291418903423832
1002,-0.00464582443237305,0.000183492489927064
1003,-0.00483894348144531,0.000215239032517128
1004,-0.00456094741821289,0.000185954264703466
1005,-0.00446939468383789,0.000243457942393633
1006,-0.00461387634277344,0.000259027494948302
1007,-0.00443029403686523,0.000259020472473481
1008,-0.00401449203491211,0.000257025401775736
1009,-0.00397348403930664,0.000325469917050557
1010,-0.00416946411132813,0.000303514249011766
1011,-0.00403165817260742,0.00030589020075576
1012,-0.00402736663818359,0.000147144251910859
1013,-0.00348806381225586,0.000152447755360332
1014,-0.00396251678466797,0.000197011664357371
1015,-0.00388860702514648,0.000279268669324778
1016,-0.00340652465820312,0.000313641430528175
1017,-0.00373983383178711,0.000272537361300045
1018,-0.00361394882202148,0.000334178149257689
1019,-0.00380086898803711,0.00030012723179277
1020,-0.00322961807250977,0.000256408956555268
1021,-0.00355434417724609,0.000242124367808941
1022,-0.00345754623413086,0.00020391242918384
1023,-0.00286293029785156,0.000272937524046836
1024,-0.00347089767456055,0.000333256983457055
1025,-0.00355243682861328,0.000323547276567218
1026,-0.00369930267333984,0.00038302106126789
1027,-0.00377368927001953,0.000296787369807586
1028,-0.00372982025146484,0.000284661799244579
1029,-0.00342702865600586,0.000400988013930391
1030,-0.00346994400024414,0.000349903613547881
1031,-0.00342941284179687,0.000320837358090762
1032,-0.00397634506225586,0.000276821938423565
1033,-0.00375938415527344,0.000307426497604607
1034,-0.00422048568725586,0.000399906924620907
1035,-0.00400495529174805,0.000366984979854129
1036,-0.00503826141357422,0.00035853081202287
1037,-0.00424337387084961,0.000435243417460712
1038,-0.00428056716918945,0.000391680438999776
1039,-0.00515413284301758,0.000339647328817522
1040,-0.00520896911621094,0.000460133774695059
1041,-0.00465202331542969,0.000342803138005877
1042,-0.00426864624023438,0.000348309226491195
1043,-0.00508880615234375,0.000528800154149275
1044,-0.00491476058959961,0.0004797654834653
1045,-0.0052485466003418,0.000353585604464483
1046,-0.00580692291259766,0.000359544070916483
1047,-0.00586843490600586,0.000666524883261542
1048,-0.00590038299560547,0.000625935911742208
1049,-0.00558233261108398,0.000437710538937182
1050,-0.00528287887573242,0.00051145403326704
1051,-0.00635004043579102,0.000671895874469865
1052,-0.00536870956420898,0.000609409081441318
1053,-0.00522327423095703,0.000570855138913584
1054,-0.00581884384155273,0.000552512513578362
1055,-0.005615234375,0.000693855578211553
1056,-0.00656557083129883,0.000547272801471302
1057,-0.00583791732788086,0.000665989771813818
1058,-0.00663471221923828,0.000594823727555073
1059,-0.00671482086181641,0.000912614001744631
1060,-0.00666666030883789,0.001120170766585
1061,-0.00620698928833008,0.00107828476143666
1062,-0.00687360763549805,0.0009656836622283
1063,-0.00645017623901367,0.00111122334326556
1064,-0.00624227523803711,0.000777449902518127
1065,-0.00656890869140625,0.000755425646636143
1066,-0.00411462783813477,0.00120140558000671
1067,-0.00573348999023438,0.00105784794798752
1068,-0.00646400451660156,0.000900510981618754
1069,-0.00604581832885742,0.000990588081736922
1070,-0.00513553619384766,0.00088565079723299
1071,-0.00696468353271484,0.000899136364756286
1072,-0.00583457946777344,0.000962241789858727
1073,-0.00588893890380859,0.00111980696508766
1074,-0.00634908676147461,0.0009805775597216
1075,-0.00698328018188477,0.000812342447355781
1076,-0.00736618041992188,0.00106538696622993
1077,-0.00649690628051758,0.00120058165369965
1078,-0.00631284713745117,0.00110098798291487
1079,-0.00758790969848633,0.00163094257667878
1080,-0.00643110275268555,0.00166858887591071
1081,-0.00657796859741211,0.00145891100789659
1082,-0.00560569763183594,0.00122569968922921
1083,-0.00752687454223633,0.00117589242067437
1084,-0.00661754608154297,0.00137602216619289
1085,-0.00884580612182617,0.00161274645256388
1086,-0.00875377655029297,0.00144266181886884
1087,-0.00793933868408203,0.00141166478989648
1088,-0.00639533996582031,0.00182634383427254
1089,-0.0079951286315918,0.00187586938054406
1090,-0.0104146003723145,0.00158500556624425
1091,-0.00754594802856445,0.00138968117702839
1092,-0.00846052169799805,0.00172201366939281
1093,-0.0072627067565918,0.00172093166258199
1094,-0.00763130187988281,0.00206974660588864
1095,-0.00587797164916992,0.00230417819780485
1096,-0.010596752166748,0.00241821720405976
1097,-0.0058135986328125,0.00250458044417075
1098,-0.00606489181518555,0.00225133078016117
1099,-0.0123405456542969,0.00185737762639141
1100,-0.00562524795532227,0.00190034725731729
