Wavelength (nm),Absorbance (AU),Std.Dev.
190,0.0987939834594727,0.0000472502076098835
191,0.0923910140991211,0.0000383283356935665
192,0.0849189758300781,0.0000348751864993538
193,0.0785531997680664,0.0000388717347202051
194,0.0721817016601563,0.0000375348389694844
195,0.0662808418273926,0.0000320989689907792
196,0.0608658790588379,0.0000346478882894961
197,0.0557413101196289,0.0000319302922111191
198,0.0508975982666016,0.0000388622283935547
199,0.0462584495544434,0.0000388892787566272
200,0.0420184135437012,0.0000301639550456422
201,0.0383119583129883,0.000027886821501109
202,0.035275936126709,0.0000350085840053248
203,0.0328221321105957,0.0000472465983819357
204,0.0307974815368652,0.0000366273330797361
205,0.0291423797607422,0.0000266970261899381
206,0.0277018547058105,0.0000372940313278982
207,0.0263910293579102,0.0000310905506179617
208,0.025299072265625,0.0000358374134912259
209,0.0243167877197266,0.0000414025378348541
210,0.0233974456787109,0.0000497958192777884
211,0.0225625038146973,0.0000458222894002529
212,0.0218205451965332,0.0000324284327238451
213,0.0211772918701172,0.0000339099619600979
214,0.0206441879272461,0.0000296071336379009
215,0.0200724601745605,0.0000337595993483217
216,0.0193905830383301,0.0000293690660013883
217,0.0187664031982422,0.0000312737568085298
218,0.0180039405822754,0.0000265999709825012
219,0.0172667503356934,0.0000335086265423926
220,0.0164809226989746,0.0000285102169055257
221,0.0157155990600586,0.0000233948040919622
222,0.0148606300354004,0.0000439570414600049
223,0.0141000747680664,0.0000352198393860698
224,0.0134177207946777,0.0000332489219374853
225,0.0128130912780762,0.0000351099185617894
226,0.0124053955078125,0.0000371986470900307
227,0.0120601654052734,0.0000399960934789994
228,0.0118207931518555,0.0000412553711355299
229,0.0116238594055176,0.0000514995168638268
230,0.0114269256591797,0.0000478194213048693
231,0.0113215446472168,0.0000316109231145524
232,0.0112133026123047,0.0000288378088268443
233,0.0110235214233398,0.0000339376097119065
234,0.0108704566955566,0.000036400044645942
235,0.010805606842041,0.000045075616066347
236,0.0105776786804199,0.0000525862970814697
237,0.0103230476379395,0.0000435582326860956
238,0.0101523399353027,0.00003896739981098
239,0.00997591018676758,0.0000360556374142336
240,0.00985431671142578,0.0000367512785566932
241,0.00974512100219727,0.0000324836017755602
242,0.0095829963684082,0.0000401188410231873
243,0.00945281982421875,0.0000358770452613386
244,0.00931930541992188,0.0000333496376806491
245,0.00912761688232422,0.0000335543975862483
246,0.00899887084960938,0.0000375219642122383
247,0.00876760482788086,0.0000315217855091828
248,0.00847244262695313,0.0000332856587288882
249,0.00817108154296875,0.0000415190741752856
250,0.00787067413330078,0.0000368516773024453
251,0.00749111175537109,0.0000381730407813789
252,0.00713729858398438,0.0000311334864481076
253,0.00671100616455078,0.0000274807794881307
254,0.00640249252319336,0.0000302420599126609
255,0.00609731674194336,0.000036198818925199
256,0.00569772720336914,0.0000449948353274744
257,0.00547075271606445,0.0000343513104863776
258,0.00513601303100586,0.0000377342125801557
259,0.00490427017211914,0.000034662650568889
260,0.00471353530883789,0.0000373625571981325
261,0.00456857681274414,0.0000365620935033762
262,0.00438928604125977,0.0000398537176410018
263,0.00414514541625977,0.0000408740128166786
264,0.00408697128295898,0.0000295504416301979
265,0.00398778915405273,0.000047034372274167
266,0.00379276275634766,0.0000474949916735681
267,0.00370168685913086,0.0000382942100032254
268,0.00356912612915039,0.0000314242561160954
269,0.00361394882202148,0.0000348922963583767
270,0.00356149673461914,0.0000429716006415091
271,0.00361013412475586,0.0000390482761146035
272,0.00366067886352539,0.0000461424652229421
273,0.00380229949951172,0.0000601637368039796
274,0.00383329391479492,0.0000540605913518302
275,0.00388669967651367,0.0000346257330696718
276,0.0039973258972168,0.0000415457628851419
277,0.00401210784912109,0.000046632626260367
278,0.00406217575073242,0.0000446727965250134
279,0.00408506393432617,0.0000402242597750914
280,0.00410699844360352,0.0000445759862448203
281,0.00401020050048828,0.0000479879212395062
282,0.00391483306884766,0.0000363054430704876
283,0.00381803512573242,0.000036452321727021
284,0.00367498397827148,0.000031069517844573
285,0.00352907180786133,0.0000299212942075995
286,0.00331544876098633,0.0000351835065411595
287,0.00311565399169922,0.0000404209152335298
288,0.00296354293823242,0.000022404370338181
289,0.00275945663452148,0.0000228521440804631
290,0.00256681442260742,0.0000351131564387328
291,0.00234222412109375,0.0000421367320531308
292,0.00203752517700195,0.000033166758083876
293,0.00190353393554687,0.0000249890651664965
294,0.00168895721435547,0.0000197052631100978
295,0.00153160095214844,0.000020749608798878
296,0.00128078460693359,0.0000282508410939422
297,0.00104808807373047,0.0000410917723791552
298,0.00107765197753906,0.0000379302904202835
299,0.000818252563476563,0.0000340905221228602
300,0.000766277313232422,0.0000391761701706767
301,0.000668048858642578,0.0000306096401985175
302,0.000574111938476563,0.000039082470600114
303,0.000611782073974609,0.000046586282660303
304,0.000472068786621094,0.0000442097739658327
305,0.000364303588867187,0.0000467762426749971
306,0.000283718109130859,0.0000375810003195183
307,0.000310897827148437,0.0000311380506054699
308,0.000281810760498047,0.0000343405528156773
309,0.000232219696044922,0.0000460265198999945
310,0.000232696533203125,0.000063828532151318
311,0.000231266021728516,0.0000409885848481018
312,0.00019073486328125,0.0000340730096529958
313,0.000139713287353516,0.0000405648035762861
314,0.000115394592285156,0.0000353680120370221
315,0.000112533569335937,0.0000421104178889472
316,0.0000529289245605469,0.0000359790936200063
317,0.0000557899475097656,0.0000371191006055794
318,-0.0000662803649902344,0.0000343041172056132
319,-0.0000514984130859375,0.0000377537909081295
320,-0.0000925064086914063,0.0000460289898626945
321,-0.000135421752929687,0.0000555418071507945
322,-0.000141620635986328,0.0000496013795688537
323,-0.000109195709228516,0.0000520003984139414
324,-0.000206947326660156,0.0000521379514054931
325,-0.000236988067626953,0.0000554209102661162
326,-0.000224590301513672,0.000045664471720254
327,-0.000197410583496094,0.0000463747119579174
328,-0.000277996063232422,0.0000441853376607366
329,-0.000212192535400391,0.0000394998501375823
330,-0.000303268432617187,0.0000419393122238549
331,-0.00031280517578125,0.0000616817940010795
332,-0.000321865081787109,0.0000553120826757266
333,-0.000383377075195312,0.0000435986688639162
334,-0.000399112701416016,0.0000398893592421806
335,-0.000468254089355469,0.0000361390978269509
336,-0.000525474548339844,0.0000327485081132998
337,-0.000527858734130859,0.0000454160797161455
338,-0.00054168701171875,0.0000510148908567218
339,-0.000650405883789063,0.0000571628121228714
340,-0.000672340393066406,0.0000416291401641861
341,-0.000779151916503906,0.0000412898028388772
342,-0.000867366790771484,0.0000482501716355834
343,-0.000928878784179688,0.000035640985975173
344,-0.000989437103271484,0.0000407388917433822
345,-0.00102710723876953,0.0000437548437002352
346,-0.00115728378295898,0.0000379250448573898
347,-0.00108146667480469,0.0000329449273747609
348,-0.00136518478393555,0.0000363656725470147
349,-0.00135707855224609,0.0000478645709660706
350,-0.00143241882324219,0.0000346142395951162
351,-0.00145292282104492,0.0000369656454832722
352,-0.00157260894775391,0.0000546660060398636
353,-0.00175142288208008,0.000049341702745329
354,-0.00185203552246094,0.0000564463224132982
355,-0.00194263458251953,0.0000430924681045873
356,-0.00206661224365234,0.0000378732997180551
357,-0.00208473205566406,0.0000515998618160964
358,-0.00200939178466797,0.0000473187306352065
359,-0.0020289421081543,0.0000464934568777028
360,-0.00209999084472656,0.0000454073175701806
361,-0.00229263305664062,0.0000499383066619341
362,-0.00233030319213867,0.000041090389027394
363,-0.00242424011230469,0.0000374817968772159
364,-0.00240850448608398,0.0000483384482135326
365,-0.00233936309814453,0.0000566313137065245
366,-0.00194454193115234,0.000036682385572275
367,-0.00200366973876953,0.0000642298059100446
368,-0.00232267379760742,0.0000689932452882459
369,-0.00216197967529297,0.0000887506555733784
370,-0.00229358673095703,0.0000669391740459932
371,-0.00190162658691406,0.000065516106760226
372,-0.00182342529296875,0.0000780324741910043
373,-0.00183343887329102,0.0000583185685462175
374,-0.00147628784179687,0.0000670138602356205
375,-0.0014491081237793,0.0000971999535083077
376,-0.00165414810180664,0.0000778662085205722
377,-0.00108098983764648,0.000060443694601024
378,-0.000794410705566406,0.0000598777237478731
379,-0.0013270378112793,0.000081743853432082
380,-0.001434326171875,0.000064429505605484
381,-0.00145483016967773,0.0000786709059663404
382,-0.000992774963378906,0.0000670935468314585
383,-0.00142669677734375,0.0000476025844830641
384,-0.00109958648681641,0.000041872167502325
385,-0.00130748748779297,0.0000369140953692663
386,-0.00106143951416016,0.0000527201651042376
387,-0.000906467437744141,0.0000687786981382786
388,-0.00104618072509766,0.0000788729596257604
389,-0.00203418731689453,0.0000662151537306367
390,-0.00111532211303711,0.000087683598588547
391,-0.000918865203857422,0.0000874759033869701
392,-0.000516414642333984,0.0000826071349666739
393,-0.00128793716430664,0.0000621756160394558
394,-0.00165796279907227,0.0000701129008320343
395,-0.00149345397949219,0.0000878312817875156
396,-0.00128555297851562,0.0000434249188518349
397,-0.000548839569091797,0.0000410364019347632
398,-0.000936508178710938,0.00006152308164505
399,-0.00192022323608398,0.0000538994754254453
400,-0.00146102905273437,0.0000432083932710345
401,-0.00162601470947266,0.0000518570001009228
402,-0.00160932540893555,0.0000535683625933378
403,-0.0011754035949707,0.0000615249294902394
404,-0.00118303298950195,0.0000570851952475631
405,-0.00121450424194336,0.0000565961717151128
406,-0.00226736068725586,0.0000521041426835927
407,-0.0019221305847168,0.0000502537502396386
408,-0.00103235244750977,0.0000777463940513184
409,-0.00170373916625977,0.0000660673326802568
410,-0.0019230842590332,0.0000748102643182051
411,-0.00158834457397461,0.0000911719629428569
412,-0.00107717514038086,0.0000964201993439283
413,-0.00171375274658203,0.0000707119119856911
414,-0.00198125839233398,0.0000472429888782533
415,-0.00169897079467773,0.000052366403472867
416,-0.00181770324707031,0.0000605902249847814
417,-0.00186729431152344,0.0000646514522317398
418,-0.00168943405151367,0.0000406390045594367
419,-0.00176286697387695,0.0000465069036558417
420,-0.00133800506591797,0.0000528117334483958
421,-0.0006256103515625,0.0000448379084957032
422,-0.00226926803588867,0.0000483795888264114
423,-0.00218296051025391,0.0000691791957219015
424,-0.00236845016479492,0.0000807714854976226
425,-0.00238704681396484,0.0000726828726403137
426,-0.00206947326660156,0.0000558998785474203
427,-0.00116300582885742,0.0000444891879531795
428,-0.00247001647949219,0.0000563233301553093
429,-0.000809192657470703,0.0000448809914189915
430,-0.00217962265014648,0.0000655716112554169
431,-0.00326156616210937,0.0000772976418999781
432,-0.00265407562255859,0.0000546597666965756
433,-0.00167655944824219,0.0000722624648778968
434,-0.00276660919189453,0.0000565670375263952
435,-0.00294113159179687,0.0000539595552324916
436,-0.00217294692993164,0.0000713441455094403
437,-0.00237035751342773,0.0000457328848156835
438,-0.00207138061523437,0.0000465386715048303
439,-0.00249338150024414,0.0000528547695419559
440,-0.0020442008972168,0.0000373252642704582
441,-0.00116777420043945,0.0000390300753528711
442,-0.00327491760253906,0.0000512694194911692
443,-0.00206708908081055,0.0000519675940377943
444,-0.00290060043334961,0.0000635786851234734
445,-0.00246906280517578,0.0000569426228642325
446,-0.00240850448608398,0.0000548683984612829
447,-0.00295591354370117,0.0000523446890899991
448,-0.00255823135375977,0.0000595368953953955
449,-0.00247621536254883,0.0000473355456782251
450,-0.00300884246826172,0.000051220612590067
451,-0.00271701812744141,0.0000581604519374546
452,-0.00287628173828125,0.0000570612918916763
453,-0.00305271148681641,0.0000507019405403894
454,-0.00272464752197266,0.0000498779417163752
455,-0.00281095504760742,0.0000532832187318101
456,-0.00291204452514648,0.0000569735604524378
457,-0.00229406356811523,0.0000533152136219444
458,-0.00279664993286133,0.0000659347000787491
459,-0.00315427780151367,0.0000504997340960454
460,-0.00329017639160156,0.0000506447306818526
461,-0.00319910049438477,0.0000571369515463848
462,-0.00313663482666016,0.0000525646735363795
463,-0.00222015380859375,0.0000477504263577272
464,-0.00288200378417969,0.0000429742461873247
465,-0.00306272506713867,0.0000545515046923641
466,-0.00381183624267578,0.0000630760221709143
467,-0.0031437873840332,0.000072435315520318
468,-0.00332546234130859,0.0000525841351271003
469,-0.00341939926147461,0.000041723932533153
470,-0.00308895111083984,0.000055418858893426
471,-0.00313520431518555,0.0000498026679864894
472,-0.00270366668701172,0.0000594509049378336
473,-0.00309276580810547,0.0000677830351908307
474,-0.00312471389770508,0.0000594269966175667
475,-0.00284147262573242,0.0000577790099404209
476,-0.00353479385375977,0.0000450099927593773
477,-0.00341176986694336,0.0000567396146497376
478,-0.00312137603759766,0.0000694678262766812
479,-0.00293731689453125,0.0000935840757325861
480,-0.0032048225402832,0.0000687886150438363
481,-0.00334882736206055,0.000049847161656845
482,-0.00352144241333008,0.0000487342972334913
483,-0.00286722183227539,0.0000496655143741198
484,-0.0038299560546875,0.0000452229203366407
485,0.0082707405090332,0.0000445823618024776
486,-0.0102272033691406,0.000040892782933511
487,-0.00472307205200195,0.000049656357330599
488,-0.00476932525634766,0.0000439777271277192
489,-0.00316572189331055,0.0000511928606659043
490,-0.00356817245483398,0.0000524900039263036
491,-0.00353193283081055,0.0000641518785813985
492,-0.00339317321777344,0.0000611077562327746
493,-0.00325870513916016,0.0000691759089089422
494,-0.00369739532470703,0.0000627181360147758
495,-0.00315332412719727,0.0000650965681832423
496,-0.00359916687011719,0.000075865076593216
497,-0.00379276275634766,0.0000671900612138832
498,-0.00329494476318359,0.0000636305197104159
499,-0.00339126586914062,0.000067421469276938
500,-0.00381803512573242,0.0000571836909737981
501,-0.00336551666259766,0.0000710295324805808
502,-0.00354719161987305,0.0000690228992549722
503,-0.00351238250732422,0.0000505256166814309
504,-0.00369882583618164,0.0000570553144879664
505,-0.00333738327026367,0.0000703815522221999
506,-0.00392818450927734,0.0000656911332390993
507,-0.00385427474975586,0.0000632326346333065
508,-0.00365972518920898,0.0000531411427145196
509,-0.00380802154541016,0.0000707777989016704
510,-0.00366449356079102,0.0000869440349522938
511,-0.00369405746459961,0.0000806052279681061
512,-0.00349235534667969,0.0000634910063862045
513,-0.00371646881103516,0.0000583078458019581
514,-0.00378179550170898,0.000073361671857594
515,-0.00369882583618164,0.0000849720604887267
516,-0.00373077392578125,0.0000515226907371862
517,-0.00399255752563477,0.0000548373097860796
518,-0.00392580032348633,0.0000577071473089909
519,-0.00397396087646484,0.0000606736639100001
520,-0.00400733947753906,0.0000666361801706166
521,-0.00395488739013672,0.0000595321214062934
522,-0.0039210319519043,0.0000525808920288728
523,-0.00373935699462891,0.0000551917125111459
524,-0.00399017333984375,0.0000636519561578665
525,-0.00390911102294922,0.0000579519013763505
526,-0.00399303436279297,0.0000668627041523511
527,-0.00400733947753906,0.000057210524014427
528,-0.003692626953125,0.0000548134631938803
529,-0.00400400161743164,0.000062835848638112
530,-0.00387477874755859,0.0000909897261796021
531,-0.00391387939453125,0.0000689141056604726
532,-0.00367450714111328,0.0000828270398811475
533,-0.00359678268432617,0.0000750287775231847
534,-0.00377178192138672,0.0000632038614632219
535,-0.00405216217041016,0.0000670206457621907
536,-0.00414419174194336,0.0000613602533539789
537,-0.00374126434326172,0.0000637287108826705
538,-0.00384902954101562,0.0000635733205126447
539,-0.00400161743164063,0.0000433751481548481
540,-0.00396442413330078,0.0000611133372745306
541,-0.00392723083496094,0.000069106849725694
542,-0.00394344329833984,0.0000532661469323469
543,-0.00409126281738281,0.0000596170412524044
544,-0.00404500961303711,0.0000768669781510099
545,-0.00421953201293945,0.0000641625106084165
546,-0.0040435791015625,0.0000395020086976351
547,-0.00362586975097656,0.0000340546535968024
548,-0.00427913665771484,0.0000514774368092774
549,-0.00421571731567383,0.0000524401651184297
550,-0.00421476364135742,0.00006482530578055
551,-0.00393533706665039,0.0000627435081631887
552,-0.00399494171142578,0.0000489310208601582
553,-0.00404834747314453,0.0000396829085715874
554,-0.00416088104248047,0.0000412264262814297
555,-0.00377130508422852,0.0000492379103375992
556,-0.00415325164794922,0.00004682968182307
557,-0.00405168533325195,0.0000510538747642477
558,-0.00427436828613281,0.0000493301810399191
559,-0.00407600402832031,0.0000644912340648526
560,-0.00397872924804687,0.0000594336919166926
561,-0.00421524047851563,0.0000535779119831186
562,-0.00415754318237305,0.0000527374136455478
563,-0.00398921966552734,0.0000429544006220896
564,-0.00403785705566406,0.0000369333389013613
565,-0.00426816940307617,0.0000435282073771532
566,-0.00406408309936523,0.0000476872919648986
567,-0.0038456916809082,0.0000730074907097912
568,-0.00391912460327148,0.0000642439643596622
569,-0.00365924835205078,0.0000424980699263443
570,-0.00397396087646484,0.0000417389159088499
571,-0.00380754470825195,0.0000464445266843139
572,-0.00494718551635742,0.0000492205903240467
573,-0.00333356857299805,0.0000589072435934401
574,-0.00409030914306641,0.0000542610516237422
575,-0.00479459762573242,0.0000368215864224777
576,-0.00325584411621094,0.0000393383430645806
577,-0.0036473274230957,0.0000379063047785392
578,-0.00484275817871094,0.0000396183962951997
579,-0.00422096252441406,0.0000383453871498583
580,-0.00303888320922852,0.0000433594192235362
581,-0.00258207321166992,0.0000420955667448109
582,-0.0054783821105957,0.0000330929797354715
583,-0.00531578063964844,0.000032156471082769
584,-0.00290632247924805,0.000028959271057175
585,-0.00371122360229492,0.0000401535394774603
586,-0.00507211685180664,0.0000458929445081775
587,-0.00302886962890625,0.000032256192255569
588,-0.00483989715576172,0.000043874201261133
589,-0.00459766387939453,0.0000477266118700071
590,-0.00398445129394531,0.0000457776089340908
591,-0.00442981719970703,0.000038840281836606
592,-0.00237941741943359,0.0000406243151300528
593,-0.00399589538574219,0.0000395832287399514
594,-0.00379467010498047,0.0000404258369393663
595,-0.00410842895507813,0.0000409733270876933
596,-0.00468158721923828,0.000044538990013296
597,-0.00360202789306641,0.0000636019265416586
598,-0.00379037857055664,0.0000583526732601011
599,-0.00356245040893555,0.0000529589868350242
600,-0.0038909912109375,0.0000362819499748648
601,-0.00431346893310547,0.0000457192103863314
602,-0.00405502319335938,0.0000543416563036036
603,-0.00417709350585938,0.0000428908331067646
604,-0.0048365592956543,0.0000447973220121691
605,-0.00364160537719727,0.0000394343176659002
606,-0.00481176376342773,0.0000463710345869773
607,-0.00434160232543945,0.0000393621781395421
608,-0.00485849380493164,0.0000376610805396617
609,-0.00467157363891602,0.0000387142147680012
610,-0.00414896011352539,0.0000440500504679909
611,-0.00502204895019531,0.000041367512915386
612,-0.00457859039306641,0.0000323916011542004
613,-0.00453567504882813,0.0000272892951630387
614,-0.00514602661132813,0.000040632709739964
615,-0.00478029251098633,0.0000556552924757669
616,-0.00558280944824219,0.0000739789454366484
617,-0.00492286682128906,0.0000531036911116797
618,-0.00495100021362305,0.0000467434202232971
619,-0.00460529327392578,0.0000474243261485783
620,-0.00445413589477539,0.0000608868958911864
621,-0.00513648986816406,0.000047330741989794
622,-0.00443744659423828,0.0000480648544088189
623,-0.00524568557739258,0.0000480340959273743
624,-0.00502872467041016,0.0000581917188986204
625,-0.00544118881225586,0.0000533493203551897
626,-0.0052790641784668,0.0000590344815371164
627,-0.00490188598632813,0.0000423909306390733
628,-0.00520467758178711,0.0000417402777672091
629,-0.00484275817871094,0.0000549625932060959
630,-0.00545978546142578,0.0000579244304389612
631,-0.00524377822875977,0.0000450112556483033
632,-0.00518655776977539,0.0000395228687002222
633,-0.00509309768676758,0.0000407828203520458
634,-0.00522375106811523,0.0000333513421059527
635,-0.00520801544189453,0.0000409164071282966
636,-0.00499916076660156,0.0000504772167122639
637,-0.00544404983520508,0.0000453007848465442
638,-0.00555944442749023,0.0000429378556443082
639,-0.00570774078369141,0.0000530533573707807
640,-0.00533771514892578,0.0000537304714022008
641,-0.00503396987915039,0.0000403582869314047
642,-0.00476741790771484,0.0000605047920538015
643,-0.00478839874267578,0.0000553285231985271
644,-0.00504732131958008,0.0000440797203201216
645,-0.00523996353149414,0.0000569645803029223
646,-0.00531530380249023,0.0000478289300385693
647,-0.00524377822875977,0.0000507467658877888
648,-0.00521612167358398,0.0000435360420628102
649,-0.00539875030517578,0.0000548632182387937
650,-0.00546169281005859,0.0000582356596603278
651,-0.00530672073364258,0.0000453133311078551
652,-0.00545024871826172,0.0000518460373711424
653,-0.00510883331298828,0.0000653858334760603
654,-0.00614786148071289,0.0000596313416774829
655,0.00438308715820313,0.0000366094814208032
656,-0.00463008880615234,0.0000357866207811523
657,-0.0179834365844727,0.0000413977322474855
658,-0.00554275512695313,0.000039393214325567
659,-0.00603199005126953,0.000041164333059588
660,-0.00567626953125,0.0000453221114242723
661,-0.00559663772583008,0.0000672035959999829
662,-0.00553750991821289,0.0000617462694406076
663,-0.00566625595092773,0.0000607232977913988
664,-0.00552892684936523,0.0000488856933646859
665,-0.0056300163269043,0.000048848470159658
666,-0.00571298599243164,0.0000598824701846476
667,-0.00565767288208008,0.0000561778124810148
668,-0.00573158264160156,0.0000491072825734729
669,-0.00566387176513672,0.0000430000317291088
670,-0.00572729110717773,0.0000416332363781945
671,-0.00553655624389648,0.0000456009424109423
672,-0.00552701950073242,0.0000471779705891828
673,-0.00591087341308594,0.0000547262830177444
674,-0.00567150115966797,0.0000549687981764665
675,-0.00569868087768555,0.0000521859003718563
676,-0.00568103790283203,0.0000388936635292154
677,-0.00557804107666016,0.0000483137470302213
678,-0.00568485260009766,0.0000443663600976242
679,-0.00558996200561523,0.0000376172841805593
680,-0.00574922561645508,0.0000463072470905486
681,-0.0055994987487793,0.0000370608625093063
682,-0.00573348999023438,0.0000527428026579004
683,-0.00556802749633789,0.0000507557262067229
684,-0.00550651550292969,0.0000587052195183109
685,-0.00548791885375977,0.0000574296861313189
686,-0.00560998916625977,0.0000361501064951402
687,-0.0055994987487793,0.0000301106713779332
688,-0.00568962097167969,0.0000386848379646147
689,-0.0055546760559082,0.0000361351653469528
690,-0.00564098358154297,0.0000413083840253113
691,-0.00542593002319336,0.000042779362667339
692,-0.00566244125366211,0.0000546087853763084
693,-0.00549840927124023,0.0000453095675942393
694,-0.0057220458984375,0.0000494797539437597
695,-0.00560665130615234,0.0000578488180965998
696,-0.00562095642089844,0.0000510883785259707
697,-0.00535297393798828,0.0000368670989959989
698,-0.0056452751159668,0.00003515683859094
699,-0.00553989410400391,0.0000495945030634158
700,-0.00568056106567383,0.000058296146013371
701,-0.00557994842529297,0.0000426476127501795
702,-0.00545120239257813,0.0000542065494913012
703,-0.00554704666137695,0.0000445198419678086
704,-0.00561618804931641,0.0000444661835741988
705,-0.00561809539794922,0.000045994398314619
706,-0.00536060333251953,0.0000573811658481548
707,-0.00528144836425781,0.0000477861258366524
708,-0.00572490692138672,0.0000390628306181148
709,-0.00562095642089844,0.0000583877316116845
710,-0.00548315048217773,0.0000557032751455071
711,-0.00559043884277344,0.0000557287810101666
712,-0.00566196441650391,0.0000467057067412792
713,-0.00543546676635742,0.0000455111030019063
714,-0.00543308258056641,0.0000498152215069594
715,-0.00559711456298828,0.0000331607590061255
716,-0.00574207305908203,0.0000394552134568055
717,-0.00570583343505859,0.0000499804050129355
718,-0.00550317764282227,0.0000544941637987623
719,-0.00555753707885742,0.0000538583295736791
720,-0.00570106506347656,0.0000438275348399203
721,-0.00568389892578125,0.0000384142571661431
722,-0.00570487976074219,0.0000537304714022008
723,-0.00559616088867188,0.0000472790715145974
724,-0.00565052032470703,0.0000503678645939836
725,-0.00562191009521484,0.0000571568453360432
726,-0.00576066970825195,0.0000501427771772891
727,-0.00586652755737305,0.0000527535790310709
728,-0.00571489334106445,0.0000391231739467157
729,-0.00561237335205078,0.0000511550938878638
730,-0.00588560104370117,0.0000505098636437556
731,-0.00584650039672852,0.000049690687542796
732,-0.00602293014526367,0.0000343546198611913
733,-0.00579071044921875,0.0000482360323908444
734,-0.00578069686889648,0.0000631696763014401
735,-0.00595712661743164,0.0000610593658355758
736,-0.0059351921081543,0.0000613380160060558
737,-0.00597763061523438,0.0000595340310478729
738,-0.00624322891235352,0.0000521989697185105
739,-0.00580263137817383,0.0000431847066215042
740,-0.00611257553100586,0.0000521074154540921
741,-0.00601625442504883,0.0000558021727641054
742,-0.00586605072021484,0.0000540353500331428
743,-0.00601434707641602,0.0000444764092115823
744,-0.00598573684692383,0.0000612397044633681
745,-0.00612974166870117,0.0000520473819632714
746,-0.00615882873535156,0.0000510983913832163
747,-0.00597238540649414,0.0000602364433937056
748,-0.00620031356811523,0.0000604267643841937
749,-0.00583553314208984,0.0000540385058427547
750,-0.00580263137817383,0.0000518690564275276
751,-0.00597286224365234,0.0000519139689778063
752,-0.00608444213867188,0.0000606183632972557
753,-0.00590610504150391,0.0000515888444439593
754,-0.00598430633544922,0.0000545077225447616
755,-0.00598669052124023,0.0000528891732034106
756,-0.00592756271362305,0.0000453095675942393
757,-0.00582170486450195,0.0000429854879405762
758,-0.00604820251464844,0.0000529911774895021
759,-0.00603628158569336,0.0000502899333063295
760,-0.00579452514648438,0.0000533727560913856
761,-0.00609636306762695,0.0000496758140304253
762,-0.00610876083374023,0.0000410308607806435
763,-0.00575542449951172,0.0000528526185695451
764,-0.00567388534545898,0.0000499064248449552
765,-0.00575351715087891,0.0000421980679561715
766,-0.00620794296264648,0.0000452606134393448
767,-0.00606346130371094,0.0000521902571843845
768,-0.00566387176513672,0.0000521543025965009
769,-0.00581455230712891,0.0000506996982326891
770,-0.00587129592895508,0.000055163897481002
771,-0.00586986541748047,0.000052783741171346
772,-0.00608444213867188,0.0000617499517180621
773,-0.00591945648193359,0.0000511695374179456
774,-0.00600528717041016,0.0000490238691805835
775,-0.00601625442504883,0.0000652640104657848
776,-0.00590848922729492,0.0000565047002520486
777,-0.00595378875732422,0.0000410391722312583
778,-0.00587368011474609,0.0000504355330498366
779,-0.00578022003173828,0.0000609895043709453
780,-0.00600385665893555,0.0000503509332703182
781,-0.00579643249511719,0.0000592699188931277
782,-0.00587272644042969,0.0000534483195083697
783,-0.00595617294311523,0.000047419531453778
784,-0.00587081909179688,0.0000520364593420176
785,-0.00595903396606445,0.0000417164388272014
786,-0.00589799880981445,0.0000462605775285145
787,-0.00578498840332031,0.0000544837316980869
788,-0.00580739974975586,0.000060311889870413
789,-0.00601768493652344,0.0000538192646872041
790,-0.00601959228515625,0.0000445147344312843
791,-0.00600481033325195,0.0000512938055265093
792,-0.00599861145019531,0.0000510416258873927
793,-0.00583076477050781,0.000041141542064175
794,-0.00577068328857422,0.0000542086467404263
795,-0.00599288940429688,0.0000650336661808294
796,-0.00626564025878906,0.0000503904308426937
797,-0.00595712661743164,0.000054405427182589
798,-0.00610780715942383,0.0000539848319900472
799,-0.00607013702392578,0.0000543217779523302
800,-0.00605344772338867,0.000036215303441714
801,-0.00601625442504883,0.0000373404903722053
802,-0.00611734390258789,0.0000482984494907429
803,-0.00608062744140625,0.0000653806171455483
804,-0.00618839263916016,0.0000688233129603146
805,-0.0060429573059082,0.0000713521125605221
806,-0.0060725212097168,0.000060925161071685
807,-0.00620269775390625,0.0000531336545057922
808,-0.00620937347412109,0.0000426636041063332
809,-0.00618886947631836,0.0000602090706989335
810,-0.00628042221069336,0.0000395163960847299
811,-0.00618839263916016,0.0000429716006415091
812,-0.00629568099975586,0.0000422290390193912
813,-0.00615596771240234,0.0000416591697137537
814,-0.00628280639648438,0.0000509970597164159
815,-0.00634384155273438,0.000057591783185869
816,-0.00640726089477539,0.0000635053295506496
817,-0.00633525848388672,0.0000486315461930091
818,-0.00644493103027344,0.0000470754450611724
819,-0.00637960433959961,0.0000529450314732354
820,-0.00626277923583984,0.0000791535319921876
821,-0.00642013549804688,0.0000692465410069147
822,-0.00642490386962891,0.0000571648009134129
823,-0.00641536712646484,0.0000552730168354595
824,-0.00649929046630859,0.0000637768584990197
825,-0.00645017623901367,0.0000614176625703325
826,-0.00649118423461914,0.0000517835054948944
827,-0.00645780563354492,0.0000446944227572805
828,-0.00650453567504883,0.000049713561180328
829,-0.00651311874389648,0.0000465325639874475
830,-0.00663137435913086,0.0000519227278725839
831,-0.00670480728149414,0.0000439402271845083
832,-0.00662136077880859,0.0000469484867673783
833,-0.00661039352416992,0.0000580988459333962
834,-0.00656890869140625,0.0000524379971392189
835,-0.00673246383666992,0.0000631912690815277
836,-0.00662994384765625,0.0000591316529531014
837,-0.00674629211425781,0.0000598492372223319
838,-0.00668573379516602,0.0000708484386495905
839,-0.00665903091430664,0.0000626945669686549
840,-0.00664281845092773,0.0000507602057730532
841,-0.00670576095581055,0.0000653719223363941
842,-0.00666046142578125,0.0000789507564156339
843,-0.00668096542358398,0.0000746048269294614
844,-0.00658750534057617,0.0000473007078843584
845,-0.0065159797668457,0.0000586044312963621
846,-0.0065913200378418,0.0000563878841365604
847,-0.00647878646850586,0.0000500679016113281
848,-0.00654315948486328,0.0000649777021700935
849,-0.00655078887939453,0.0000605386041103669
850,-0.00646686553955078,0.0000621408652180867
851,-0.0065302848815918,0.0000800930303165007
852,-0.00632429122924805,0.00006192644354414
853,-0.0063328742980957,0.0000629244402769579
854,-0.00644254684448242,0.0000627978425337003
855,-0.00657129287719727,0.0000506222777942967
856,-0.0064544677734375,0.000049892754972566
857,-0.00642061233520508,0.0000447833619131819
858,-0.00644445419311523,0.0000458879898043025
859,-0.00642204284667969,0.0000533834052975993
860,-0.00640010833740234,0.0000744247949776993
861,-0.00635766983032227,0.000060439932740457
862,-0.00626659393310547,0.0000555919328376376
863,-0.00623893737792969,0.0000562061370902526
864,-0.00640058517456055,0.000075872568922317
865,-0.00631999969482422,0.0000478550693141723
866,-0.00630569458007813,0.000058726517938006
867,-0.00621175765991211,0.0000518471337484302
868,-0.00631427764892578,0.0000545264906269943
869,-0.00629138946533203,0.0000439104630783895
870,-0.00625419616699219,0.0000519457129445978
871,-0.00627994537353516,0.000055223631009581
872,-0.006317138671875,0.0000627471319183196
873,-0.00617456436157227,0.0000541666863295095
874,-0.00620222091674805,0.0000591547197193203
875,-0.00622940063476563,0.0000606221140854471
876,-0.00630474090576172,0.0000750484730984202
877,-0.00632858276367188,0.0000765349634269759
878,-0.00615835189819336,0.0000591230005955933
879,-0.00621557235717773,0.0000610630895352795
880,-0.00622749328613281,0.0000527093818996282
881,-0.00634574890136719,0.0000600161651518486
882,-0.00636863708496094,0.0000601268778463292
883,-0.006195068359375,0.0000620767996228212
884,-0.00617170333862305,0.0000525278930807587
885,-0.00620031356811523,0.0000573682862320556
886,-0.00622320175170898,0.0000707649477351728
887,-0.00623559951782227,0.0000797815684877017
888,-0.00630092620849609,0.0000679572418652161
889,-0.0062108039855957,0.0000580048443008963
890,-0.006195068359375,0.0000560461178517143
891,-0.00620651245117188,0.0000671087951724966
892,-0.00626802444458008,0.0000696459806322696
893,-0.00622320175170898,0.0000457738835932607
894,-0.00620794296264648,0.0000612359915034433
895,-0.00615215301513672,0.0000604709610913849
896,-0.00626897811889648,0.0000572373444756464
897,-0.00634431838989258,0.0000772122902789546
898,-0.00624561309814453,0.0000881774926240067
899,-0.0063633918762207,0.0000633278523831949
900,-0.00626277923583984,0.0000602449358391441
901,-0.00631618499755859,0.0000643076388072327
902,-0.00633430480957031,0.0000631300703561225
903,-0.00631427764892578,0.0000775604624225616
904,-0.00631332397460938,0.0000900704876183899
905,-0.00642156600952148,0.0000743514369131579
906,-0.00644254684448242,0.0000570024868661141
907,-0.00632667541503906,0.0000686662064458661
908,-0.00639247894287109,0.0000814331212977979
909,-0.00638437271118164,0.0000786015108578932
910,-0.0064234733581543,0.0000951406643838221
911,-0.00657176971435547,0.0000725920953139689
912,-0.00653791427612305,0.0000642634271345329
913,-0.00655603408813477,0.0000663146609487491
914,-0.00669574737548828,0.0000710231299627671
915,-0.00668430328369141,0.0000569855317837804
916,-0.00656747817993164,0.0000493474625892458
917,-0.00676107406616211,0.0000481723544325335
918,-0.00679159164428711,0.0000636519561578665
919,-0.0068516731262207,0.0000864273104155224
920,-0.00689506530761719,0.0000733539230673049
921,-0.00694608688354492,0.0000582785919264808
922,-0.00697088241577148,0.0000462900585155929
923,-0.00719833374023438,0.0000592152272295548
924,-0.00730133056640625,0.0000756895443668917
925,-0.00738859176635742,0.0000984250111299681
926,-0.00742769241333008,0.0000708163384084205
927,-0.00739574432373047,0.0000778121687358592
928,-0.0076146125793457,0.00010226128339203
929,-0.00768899917602539,0.0000847899064974102
930,-0.00785541534423828,0.0000641890829713808
931,-0.0078120231628418,0.0000676823273769069
932,-0.00783395767211914,0.0000675511827614456
933,-0.00795507431030273,0.0000774328342593633
934,-0.00824785232543945,0.000106072423162823
935,-0.00830078125,0.0000799025996621544
936,-0.00847387313842773,0.0000668422974056062
937,-0.00857734680175781,0.000069898537451968
938,-0.00873708724975586,0.0000603090623308609
939,-0.00890350341796875,0.0000685518717764929
940,-0.00909709930419922,0.000100862049288526
941,-0.00911617279052734,0.0000611244978292925
942,-0.00922918319702148,0.0000545014650811369
943,-0.0093841552734375,0.0000749469097304859
944,-0.00940895080566406,0.0000619025730664307
945,-0.00960302352905273,0.000107558228911375
946,-0.00981760025024414,0.000113763393085073
947,-0.00986099243164063,0.000122631541186659
948,-0.0102605819702148,0.0000975152390879849
949,-0.0105075836181641,0.0000651000609568563
950,-0.010678768157959,0.0000683492467819262
951,-0.0108866691589355,0.000114417073626795
952,-0.0110993385314941,0.0000843745801656375
953,-0.0114102363586426,0.0000962030045541267
954,-0.011664867401123,0.0000927003812813168
955,-0.0118021965026855,0.0000867555381778124
956,-0.012054443359375,0.0000941774512911111
957,-0.0126042366027832,0.0000989112456041849
958,-0.0127873420715332,0.000102074342042997
959,-0.0129919052124023,0.000107232185068267
960,-0.0129246711730957,0.000100728957569205
961,-0.0132627487182617,0.000117476264005553
962,-0.0133156776428223,0.000107919110464983
963,-0.0131492614746094,0.000113280693388879
964,-0.0132322311401367,0.0000920727979113564
965,-0.0130047798156738,0.0000960208442955125
966,-0.0131382942199707,0.000150472158888736
967,-0.0127525329589844,0.000150299798411828
968,-0.0127162933349609,0.000122676032012112
969,-0.0127191543579102,0.000118147893264378
970,-0.0124073028564453,0.000130018375708411
971,-0.0125541687011719,0.000150269539347195
972,-0.0122742652893066,0.000177931196165022
973,-0.0122013092041016,0.000240026772211993
974,-0.0119457244873047,0.000170931323327398
975,-0.0117878913879395,0.000147005114226773
976,-0.0118842124938965,0.000116736514698764
977,-0.0114727020263672,0.00012595723709945
978,-0.011324405670166,0.000185101281479059
979,-0.0115489959716797,0.00014201744437398
980,-0.0111851692199707,0.000153500095240463
981,-0.0111517906188965,0.000185268265077725
982,-0.0109844207763672,0.000192981836057692
983,-0.010460376739502,0.000160430017657146
984,-0.0104751586914062,0.000183358613502988
985,-0.0101194381713867,0.00015184699430462
986,-0.0099940299987793,0.000135974695411837
987,-0.00990533828735352,0.000123385703438352
988,-0.0096898078918457,0.00014194698173289
989,-0.00963163375854492,0.000157555540652147
990,-0.00943803787231445,0.000216271804733715
991,-0.00955724716186523,0.000207204263691394
992,-0.00922441482543945,0.000181002260061206
993,-0.00952529907226563,0.000173704911346855
994,-0.00911378860473633,0.000232203539809165
995,-0.00881147384643555,0.000259742790039523
996,-0.00858449935913086,0.000198698678918514
997,-0.00884103775024414,0.000178186587707641
998,-0.00837516784667969,0.000187614668797554
999,-0.00859594345092773,0.000259728783579914
1000,-0.00823020935058594,0.000271467376852647
1001,-0.00827169418334961,0.000286400956987746
1002,-0.00813770294189453,0.000153227300851605
1003,-0.00816869735717773,0.000226256091153346
1004,-0.00836753845214844,0.000220733889929434
1005,-0.00799989700317383,0.00023954506825284
1006,-0.00804710388183594,0.000201922379840572
1007,-0.0080103874206543,0.000217529745882815
1008,-0.007904052734375,0.000236814827028888
1009,-0.00756311416625977,0.000248870627416609
1010,-0.00782632827758789,0.000299987802670421
1011,-0.00777196884155273,0.000271071754237948
1012,-0.00780916213989258,0.000232168285937753
1013,-0.00742721557617188,0.000283534928499317
1014,-0.00801515579223633,0.00019456358466371
1015,-0.00792694091796875,0.000224176357453602
1016,-0.00760412216186523,0.000272403843086418
1017,-0.00805425643920898,0.000199443376116483
1018,-0.00778770446777344,0.000232321014077532
1019,-0.00864315032958984,0.000321024397277363
1020,-0.00823450088500977,0.000329082593173061
1021,-0.00842380523681641,0.00023873117934593
1022,-0.00815057754516602,0.000184973486426292
1023,-0.00806999206542969,0.000253397564994553
1024,-0.00879096984863281,0.000317904154205332
1025,-0.00892543792724609,0.000337638421834699
1026,-0.00851964950561523,0.000211333023508541
1027,-0.008697509765625,0.000225462808177962
1028,-0.00895357131958008,0.000194395228487392
1029,-0.00872087478637695,0.000314209275590099
1030,-0.00902318954467773,0.000425531147090531
1031,-0.00911951065063477,0.000306460537237472
1032,-0.00929880142211914,0.00033315326116603
1033,-0.00922822952270508,0.000343868034523277
1034,-0.0102224349975586,0.000545768405836616
1035,-0.0102181434631348,0.000373811136779514
1036,-0.0102767944335937,0.000320207424490865
1037,-0.00986289978027344,0.000434440261154417
1038,-0.0104360580444336,0.00044376096361428
1039,-0.0112371444702148,0.000392728595222528
1040,-0.0110058784484863,0.000517970714486253
1041,-0.0110116004943848,0.000393977161499718
1042,-0.0108537673950195,0.000338364937660484
1043,-0.010810375213623,0.000535214397480488
1044,-0.0112357139587402,0.000468765608706477
1045,-0.0117225646972656,0.000419382550194516
1046,-0.0128345489501953,0.000393284002932119
1047,-0.0120377540588379,0.000570906119502113
1048,-0.0118107795715332,0.000641629358528525
1049,-0.0123591423034668,0.000568300278530966
1050,-0.0127406120300293,0.000631410184833573
1051,-0.0137472152709961,0.000556514520749757
1052,-0.0124855041503906,0.000512534070772352
1053,-0.0128002166748047,0.000507182615526046
1054,-0.0130162239074707,0.000423938001396366
1055,-0.0139083862304687,0.000751137042911771
1056,-0.0141315460205078,0.000725935987591246
1057,-0.0133333206176758,0.0008406886574775
1058,-0.0152621269226074,0.000813434438313157
1059,-0.0152292251586914,0.000821019985876355
1060,-0.0164270401000977,0.00085171179053368
1061,-0.0146031379699707,0.000924464159046734
1062,-0.0140376091003418,0.000592961529736795
1063,-0.0145354270935059,0.000813148156332247
1064,-0.0138149261474609,0.000590699435708026
1065,-0.0136857032775879,0.000866146314246747
1066,-0.0119585990905762,0.00128744761142809
1067,-0.0127301216125488,0.00102812991503436
1068,-0.014765739440918,0.000764216308236925
1069,-0.0134763717651367,0.000940166174035983
1070,-0.013031005859375,0.000916972609037747
1071,-0.0147089958190918,0.00106067792950334
1072,-0.0147218704223633,0.000899120180285535
1073,-0.0131101608276367,0.0012139850767897
1074,-0.0133976936340332,0.00103810241987577
1075,-0.0143904685974121,0.00112540681258651
1076,-0.0147500038146973,0.00102552231442545
1077,-0.0146975517272949,0.00107254743607584
1078,-0.0149135589599609,0.00122410776277883
1079,-0.0142345428466797,0.00132880750818545
1080,-0.013974666595459,0.00173688993601298
1081,-0.0142745971679687,0.00173014079488809
1082,-0.0155901908874512,0.00127351484327115
1083,-0.0128836631774902,0.0011064989560112
1084,-0.0160942077636719,0.00102356225447283
1085,-0.0144381523132324,0.00139615835372288
1086,-0.0173358917236328,0.0017559876506485
1087,-0.015479564666748,0.00145615544216811
1088,-0.0159430503845215,0.00173235983022482
1089,-0.0130233764648437,0.0018806728337874
1090,-0.0180706977844238,0.001601118921864
1091,-0.0138425827026367,0.000901044091274697
1092,-0.0190138816833496,0.00103571665187651
1093,-0.0152616500854492,0.00139436447524729
1094,-0.0175795555114746,0.00207777424053482
1095,-0.0150198936462402,0.00215246300271767
1096,-0.0211367607116699,0.00235569216173216
1097,-0.0197772979736328,0.00204729510502442
1098,-0.0157899856567383,0.00137471019741528
1099,-0.0198502540588379,0.00169839301818742
1100,-0.017570972442627,0.00182347317556933
