Wavelength (nm),Absorbance (AU),Std.Dev.
190,0.0987939834594727,0.0000472502076098835
191,0.0923910140991211,0.0000383283356935665
192,0.0849189758300781,0.0000348751864993538
193,0.0785531997680664,0.0000388717347202051
194,0.0721817016601563,0.0000375348389694844
195,0.0662808418273926,0.0000320989689907792
196,0.0608658790588379,0.0000346478882894961
197,0.0557413101196289,0.0000319302922111191
198,0.0508975982666016,0.0000388622283935547
199,0.0462584495544434,0.0000388892787566272
200,0.0420184135437012,0.0000301639550456422
201,0.0383119583129883,0.000027886821501109
202,0.035275936126709,0.0000350085840053248
203,0.0328221321105957,0.0000472465983819357
204,0.0307974815368652,0.0000366273330797361
205,0.0291423797607422,0.0000266970261899381
206,0.0277018547058105,0.0000372940313278982
207,0.0263910293579102,0.0000310905506179617
208,0.025299072265625,0.0000358374134912259
209,0.0243167877197266,0.0000414025378348541
210,0.0233974456787109,0.0000497958192777884
211,0.0225625038146973,0.0000458222894002529
212,0.0218205451965332,0.0000324284327238451
213,0.0211772918701172,0.0000339099619600979
214,0.0206441879272461,0.0000296071336379009
215,0.0200724601745605,0.0000337595993483217
216,0.0193905830383301,0.0000293690660013883
217,0.0187664031982422,0.0000312737568085298
218,0.0180039405822754,0.0000265999709825012
219,0.0172667503356934,0.0000335086265423926
220,0.0164809226989746,0.0000285102169055257
221,0.0157155990600586,0.0000233948040919622
222,0.0148606300354004,0.0000439570414600049
223,0.0141000747680664,0.0000352198393860698
224,0.0134177207946777,0.0000332489219374853
225,0.0128130912780762,0.0000351099185617894
226,0.0124053955078125,0.0000371986470900307
227,0.0120601654052734,0.0000399960934789994
228,0.0118207931518555,0.0000412553711355299
229,0.0116238594055176,0.0000514995168638268
230,0.0114269256591797,0.0000478194213048693
231,0.0113215446472168,0.0000316109231145524
232,0.0112133026123047,0.0000288378088268443
233,0.0110235214233398,0.0000339376097119065
234,0.0108704566955566,0.000036400044645942
235,0.010805606842041,0.000045075616066347
236,0.0105776786804199,0.0000525862970814697
237,0.0103230476379395,0.0000435582326860956
238,0.0101523399353027,0.00003896739981098
239,0.00997591018676758,0.0000360556374142336
240,0.00985431671142578,0.0000367512785566932
241,0.00974512100219727,0.0000324836017755602
242,0.0095829963684082,0.0000401188410231873
243,0.00945281982421875,0.0000358770452613386
244,0.00931930541992188,0.0000333496376806491
245,0.00912761688232422,0.0000335543975862483
246,0.00899887084960938,0.0000375219642122383
247,0.00876760482788086,0.0000315217855091828
248,0.00847244262695313,0.0000332856587288882
249,0.00817108154296875,0.0000415190741752856
250,0.00787067413330078,0.0000368516773024453
251,0.00749111175537109,0.0000381730407813789
252,0.00713729858398438,0.0000311334864481076
253,0.00671100616455078,0.0000274807794881307
254,0.00640249252319336,0.0000302420599126609
255,0.00609731674194336,0.000036198818925199
256,0.00569772720336914,0.0000449948353274744
257,0.00547075271606445,0.0000343513104863776
258,0.00513601303100586,0.0000377342125801557
259,0.00490427017211914,0.000034662650568889
260,0.00471353530883789,0.0000373625571981325
261,0.00456857681274414,0.0000365620935033762
262,0.00438928604125977,0.0000398537176410018
263,0.00414514541625977,0.0000408740128166786
264,0.00408697128295898,0.0000295504416301979
265,0.00398778915405273,0.000047034372274167
266,0.00379276275634766,0.0000474949916735681
267,0.00370168685913086,0.0000382942100032254
268,0.00356912612915039,0.0000314242561160954
269,0.00361394882202148,0.0000348922963583767
270,0.00356149673461914,0.0000429716006415091
271,0.00361013412475586,0.0000390482761146035
272,0.00366067886352539,0.0000461424652229421
273,0.00380229949951172,0.0000601637368039796
274,0.00383329391479492,0.0000540605913518302
275,0.00388669967651367,0.0000346257330696718
276,0.0039973258972168,0.0000415457628851419
277,0.00401210784912109,0.000046632626260367
278,0.00406217575073242,0.0000446727965250134
279,0.00408506393432617,0.0000402242597750914
280,0.00410699844360352,0.0000445759862448203
281,0.00401020050048828,0.0000479879212395062
282,0.00391483306884766,0.0000363054430704876
283,0.00381803512573242,0.000036452321727021
284,0.00367498397827148,0.000031069517844573
285,0.00352907180786133,0.0000299212942075995
286,0.00331544876098633,0.0000351835065411595
287,0.00311565399169922,0.0000404209152335298
288,0.00296354293823242,0.000022404370338181
289,0.00275945663452148,0.0000228521440804631
290,0.00256681442260742,0.0000351131564387328
291,0.00234222412109375,0.0000421367320531308
292,0.00203752517700195,0.000033166758083876
293,0.00190353393554687,0.0000249890651664965
294,0.00168895721435547,0.0000197052631100978
295,0.00153160095214844,0.000020749608798878
296,0.00128078460693359,0.0000282508410939422
297,0.00104808807373047,0.0000410917723791552
298,0.00107765197753906,0.0000379302904202835
299,0.000818252563476563,0.0000340905221228602
300,0.000766277313232422,0.0000391761701706767
301,0.000668048858642578,0.0000306096401985175
302,0.000574111938476563,0.000039082470600114
303,0.000611782073974609,0.000046586282660303
304,0.000472068786621094,0.0000442097739658327
305,0.000364303588867187,0.0000467762426749971
306,0.000283718109130859,0.0000375810003195183
307,0.000310897827148437,0.0000311380506054699
308,0.000281810760498047,0.0000343405528156773
309,0.000232219696044922,0.0000460265198999945
310,0.000232696533203125,0.000063828532151318
311,0.000231266021728516,0.0000409885848481018
312,0.00019073486328125,0.0000340730096529958
313,0.000139713287353516,0.0000405648035762861
314,0.000115394592285156,0.0000353680120370221
315,0.000112533569335937,0.0000421104178889472
316,0.0000529289245605469,0.0000359790936200063
317,0.0000557899475097656,0.0000371191006055794
318,-0.0000662803649902344,0.0000343041172056132
319,-0.0000514984130859375,0.0000377537909081295
320,-0.0000925064086914063,0.0000460289898626945
321,-0.000135421752929687,0.0000555418071507945
322,-0.000141620635986328,0.0000496013795688537
323,-0.000109195709228516,0.0000520003984139414
324,-0.000206947326660156,0.0000521379514054931
325,-0.000236988067626953,0.0000554209102661162
326,-0.000224590301513672,0.000045664471720254
327,-0.000197410583496094,0.0000463747119579174
328,-0.000277996063232422,0.0000441853376607366
329,-0.000212192535400391,0.0000394998501375823
330,-0.000303268432617187,0.0000419393122238549
331,-0.00031280517578125,0.0000616817940010795
332,-0.000321865081787109,0.0000553120826757266
333,-0.000383377075195312,0.0000435986688639162
334,-0.000399112701416016,0.0000398893592421806
335,-0.000468254089355469,0.0000361390978269509
336,-0.000525474548339844,0.0000327485081132998
337,-0.000527858734130859,0.0000454160797161455
338,-0.00054168701171875,0.0000510148908567218
339,-0.000650405883789063,0.0000571628121228714
340,-0.000672340393066406,0.0000416291401641861
341,-0.000779151916503906,0.0000412898028388772
342,-0.000867366790771484,0.0000482501716355834
343,-0.000928878784179688,0.000035640985975173
344,-0.000989437103271484,0.0000407388917433822
345,-0.00102710723876953,0.0000437548437002352
346,-0.00115728378295898,0.0000379250448573898
347,-0.00108146667480469,0.0000329449273747609
348,-0.00136518478393555,0.0000363656725470147
349,-0.00135707855224609,0.0000478645709660706
350,-0.00143241882324219,0.0000346142395951162
351,-0.00145292282104492,0.0000369656454832722
352,-0.00157260894775391,0.0000546660060398636
353,-0.00175142288208008,0.000049341702745329
354,-0.00185203552246094,0.0000564463224132982
355,-0.00194263458251953,0.0000430924681045873
356,-0.00206661224365234,0.0000378732997180551
357,-0.00208473205566406,0.0000515998618160964
358,-0.00200939178466797,0.0000473187306352065
359,-0.0020289421081543,0.0000464934568777028
360,-0.00209999084472656,0.0000454073175701806
361,-0.00229263305664062,0.0000499383066619341
362,-0.00233030319213867,0.000041090389027394
363,-0.00242424011230469,0.0000374817968772159
364,-0.00240850448608398,0.0000483384482135326
365,-0.00233936309814453,0.0000566313137065245
366,-0.00194454193115234,0.000036682385572275
367,-0.00200366973876953,0.0000642298059100446
368,-0.00232267379760742,0.0000689932452882459
369,-0.00216197967529297,0.0000887506555733784
370,-0.00229358673095703,0.0000669391740459932
371,-0.00190162658691406,0.000065516106760226
372,-0.00182342529296875,0.0000780324741910043
373,-0.00183343887329102,0.0000583185685462175
374,-0.00147628784179687,0.0000670138602356205
375,-0.0014491081237793,0.0000971999535083077
376,-0.00165414810180664,0.0000778662085205722
377,-0.00108098983764648,0.000060443694601024
378,-0.000794410705566406,0.0000598777237478731
379,-0.0013270378112793,0.000081743853432082
380,-0.001434326171875,0.000064429505605484
381,-0.00145483016967773,0.0000786709059663404
382,-0.000992774963378906,0.0000670935468314585
383,-0.00142669677734375,0.0000476025844830641
384,-0.00109958648681641,0.000041872167502325
385,-0.00130748748779297,0.0000369140953692663
386,-0.00106143951416016,0.0000527201651042376
387,-0.000906467437744141,0.0000687786981382786
388,-0.00104618072509766,0.0000788729596257604
389,-0.00203418731689453,0.0000662151537306367
390,-0.00111532211303711,0.000087683598588547
391,-0.000918865203857422,0.0000874759033869701
392,-0.000516414642333984,0.0000826071349666739
393,-0.00128793716430664,0.0000621756160394558
394,-0.00165796279907227,0.0000701129008320343
395,-0.00149345397949219,0.0000878312817875156
396,-0.00128555297851562,0.0000434249188518349
397,-0.000548839569091797,0.0000410364019347632
398,-0.000936508178710938,0.00006152308164505
399,-0.00192022323608398,0.0000538994754254453
400,-0.00146102905273437,0.0000432083932710345
401,-0.00162601470947266,0.0000518570001009228
402,-0.00160932540893555,0.0000535683625933378
403,-0.0011754035949707,0.0000615249294902394
404,-0.00118303298950195,0.0000570851952475631
405,-0.00121450424194336,0.0000565961717151128
406,-0.00226736068725586,0.0000521041426835927
407,-0.0019221305847168,0.0000502537502396386
408,-0.00103235244750977,0.0000777463940513184
409,-0.00170373916625977,0.0000660673326802568
410,-0.0019230842590332,0.0000748102643182051
411,-0.00158834457397461,0.0000911719629428569
412,-0.00107717514038086,0.0000964201993439283
413,-0.00171375274658203,0.0000707119119856911
414,-0.00198125839233398,0.0000472429888782533
415,-0.00169897079467773,0.000052366403472867
416,-0.00181770324707031,0.0000605902249847814
417,-0.00186729431152344,0.0000646514522317398
418,-0.00168943405151367,0.0000406390045594367
419,-0.00176286697387695,0.0000465069036558417
420,-0.00133800506591797,0.0000528117334483958
421,-0.0006256103515625,0.0000448379084957032
422,-0.00226926803588867,0.0000483795888264114
423,-0.00218296051025391,0.0000691791957219015
424,-0.00236845016479492,0.0000807714854976226
425,-0.00238704681396484,0.0000726828726403137
426,-0.00206947326660156,0.0000558998785474203
427,-0.00116300582885742,0.0000444891879531795
428,-0.00247001647949219,0.0000563233301553093
429,-0.000809192657470703,0.0000448809914189915
430,-0.00217962265014648,0.0000655716112554169
431,-0.00326156616210937,0.0000772976418999781
432,-0.00265407562255859,0.0000546597666965756
433,-0.00167655944824219,0.0000722624648778968
434,-0.00276660919189453,0.0000565670375263952
435,-0.00294113159179687,0.0000539595552324916
436,-0.00217294692993164,0.0000713441455094403
437,-0.00237035751342773,0.0000457328848156835
438,-0.00207138061523437,0.0000465386715048303
439,-0.00249338150024414,0.0000528547695419559
440,-0.0020442008972168,0.0000373252642704582
441,-0.00116777420043945,0.0000390300753528711
442,-0.00327491760253906,0.0000512694194911692
443,-0.00206708908081055,0.0000519675940377943
444,-0.00290060043334961,0.0000635786851234734
445,-0.00246906280517578,0.0000569426228642325
446,-0.00240850448608398,0.0000548683984612829
447,-0.00295591354370117,0.0000523446890899991
448,-0.00255823135375977,0.0000595368953953955
449,-0.00247621536254883,0.0000473355456782251
450,-0.00300884246826172,0.000051220612590067
451,-0.00271701812744141,0.0000581604519374546
452,-0.00287628173828125,0.0000570612918916763
453,-0.00305271148681641,0.0000507019405403894
454,-0.00272464752197266,0.0000498779417163752
455,-0.00281095504760742,0.0000532832187318101
456,-0.00291204452514648,0.0000569735604524378
457,-0.00229406356811523,0.0000533152136219444
458,-0.00279664993286133,0.0000659347000787491
459,-0.00315427780151367,0.0000504997340960454
460,-0.00329017639160156,0.0000506447306818526
461,-0.00319910049438477,0.0000571369515463848
462,-0.00313663482666016,0.0000525646735363795
463,-0.00222015380859375,0.0000477504263577272
464,-0.00288200378417969,0.0000429742461873247
465,-0.00306272506713867,0.0000545515046923641
466,-0.00381183624267578,0.0000630760221709143
467,-0.0031437873840332,0.000072435315520318
468,-0.00332546234130859,0.0000525841351271003
469,-0.00341939926147461,0.000041723932533153
470,-0.00308895111083984,0.000055418858893426
471,-0.00313520431518555,0.0000498026679864894
472,-0.00270366668701172,0.0000594509049378336
473,-0.00309276580810547,0.0000677830351908307
474,-0.00312471389770508,0.0000594269966175667
475,-0.00284147262573242,0.0000577790099404209
476,-0.00353479385375977,0.0000450099927593773
477,-0.00341176986694336,0.0000567396146497376
478,-0.00312137603759766,0.0000694678262766812
479,-0.00293731689453125,0.0000935840757325861
480,-0.0032048225402832,0.0000687886150438363
481,-0.00334882736206055,0.000049847161656845
482,-0.00352144241333008,0.0000487342972334913
483,-0.00286722183227539,0.0000496655143741198
484,-0.0038299560546875,0.0000452229203366407
485,0.0082707405090332,0.0000445823618024776
486,-0.0102272033691406,0.000040892782933511
487,-0.00472307205200195,0.000049656357330599
488,-0.00476932525634766,0.0000439777271277192
489,-0.00316572189331055,0.0000511928606659043
490,-0.00356817245483398,0.0000524900039263036
491,-0.00353193283081055,0.0000641518785813985
492,-0.00339317321777344,0.0000611077562327746
493,-0.00325870513916016,0.0000691759089089422
494,-0.00369739532470703,0.0000627181360147758
495,-0.00315332412719727,0.0000650965681832423
496,-0.00359916687011719,0.000075865076593216
497,-0.00379276275634766,0.0000671900612138832
498,-0.00329494476318359,0.0000636305197104159
499,-0.00339126586914062,0.000067421469276938
500,-0.00381803512573242,0.0000571836909737981
501,-0.00336551666259766,0.0000710295324805808
502,-0.00354719161987305,0.0000690228992549722
503,-0.00351238250732422,0.0000505256166814309
504,-0.00369882583618164,0.0000570553144879664
505,-0.00333738327026367,0.0000703815522221999
506,-0.00392818450927734,0.0000656911332390993
507,-0.00385427474975586,0.0000632326346333065
508,-0.00365972518920898,0.0000531411427145196
509,-0.00380802154541016,0.0000707777989016704
510,-0.00366449356079102,0.0000869440349522938
511,-0.00369405746459961,0.0000806052279681061
512,-0.00349235534667969,0.0000634910063862045
513,-0.00371646881103516,0.0000583078458019581
514,-0.00378179550170898,0.000073361671857594
515,-0.00369882583618164,0.0000849720604887267
516,-0.00373077392578125,0.0000515226907371862
517,-0.00399255752563477,0.0000548373097860796
518,-0.00392580032348633,0.0000577071473089909
519,-0.00397396087646484,0.0000606736639100001
520,-0.00400733947753906,0.0000666361801706166
521,-0.00395488739013672,0.0000595321214062934
522,-0.0039210319519043,0.0000525808920288728
523,-0.00373935699462891,0.0000551917125111459
524,-0.00399017333984375,0.0000636519561578665
525,-0.00390911102294922,0.0000579519013763505
526,-0.00399303436279297,0.0000668627041523511
527,-0.00400733947753906,0.000057210524014427
528,-0.003692626953125,0.0000548134631938803
529,-0.00400400161743164,0.000062835848638112
530,-0.00387477874755859,0.0000909897261796021
531,-0.00391387939453125,0.0000689141056604726
532,-0.00367450714111328,0.0000828270398811475
533,-0.00359678268432617,0.0000750287775231847
534,-0.00377178192138672,0.0000632038614632219
535,-0.00405216217041016,0.0000670206457621907
536,-0.00414419174194336,0.0000613602533539789
537,-0.00374126434326172,0.0000637287108826705
538,-0.00384902954101562,0.0000635733205126447
539,-0.00400161743164063,0.0000433751481548481
540,-0.00396442413330078,0.0000611133372745306
541,-0.00392723083496094,0.000069106849725694
542,-0.00394344329833984,0.0000532661469323469
543,-0.00409126281738281,0.0000596170412524044
544,-0.00404500961303711,0.0000768669781510099
545,-0.00421953201293945,0.0000641625106084165
546,-0.0040435791015625,0.0000395020086976351
547,-0.00362586975097656,0.0000340546535968024
548,-0.00427913665771484,0.0000514774368092774
549,-0.00421571731567383,0.0000524401651184297
550,-0.00421476364135742,0.00006482530578055
551,-0.00393533706665039,0.0000627435081631887
552,-0.00399494171142578,0.0000489310208601582
553,-0.00404834747314453,0.0000396829085715874
554,-0.00416088104248047,0.0000412264262814297
555,-0.00377130508422852,0.0000492379103375992
556,-0.00415325164794922,0.00004682968182307
557,-0.00405168533325195,0.0000510538747642477
558,-0.00427436828613281,0.0000493301810399191
559,-0.00407600402832031,0.0000644912340648526
560,-0.00397872924804687,0.0000594336919166926
561,-0.00421524047851563,0.0000535779119831186
562,-0.00415754318237305,0.0000527374136455478
563,-0.00398921966552734,0.0000429544006220896
564,-0.00403785705566406,0.0000369333389013613
565,-0.00426816940307617,0.0000435282073771532
566,-0.00406408309936523,0.0000476872919648986
567,-0.0038456916809082,0.0000730074907097912
568,-0.00391912460327148,0.0000642439643596622
569,-0.00365924835205078,0.0000424980699263443
570,-0.00397396087646484,0.0000417389159088499
571,-0.00380754470825195,0.0000464445266843139
572,-0.00494718551635742,0.0000492205903240467
573,-0.00333356857299805,0.0000589072435934401
574,-0.00409030914306641,0.0000542610516237422
575,-0.00479459762573242,0.0000368215864224777
576,-0.00325584411621094,0.0000393383430645806
577,-0.0036473274230957,0.0000379063047785392
578,-0.00484275817871094,0.0000396183962951997
579,-0.00422096252441406,0.0000383453871498583
580,-0.00303888320922852,0.0000433594192235362
581,-0.00258207321166992,0.0000420955667448109
582,-0.0054783821105957,0.0000330929797354715
583,-0.00531578063964844,0.000032156471082769
584,-0.00290632247924805,0.000028959271057175
585,-0.00371122360229492,0.0000401535394774603
586,-0.00507211685180664,0.0000458929445081775
587,-0.00302886962890625,0.000032256192255569
588,-0.00483989715576172,0.000043874201261133
589,-0.00459766387939453,0.0000477266118700071
590,-0.00398445129394531,0.0000457776089340908
591,-0.00442981719970703,0.000038840281836606
592,-0.00237941741943359,0.0000406243151300528
593,-0.00399589538574219,0.0000395832287399514
594,-0.00379467010498047,0.0000404258369393663
595,-0.00410842895507813,0.0000409733270876933
596,-0.00468158721923828,0.000044538990013296
597,-0.00360202789306641,0.0000636019265416586
598,-0.00379037857055664,0.0000583526732601011
599,-0.00356245040893555,0.0000529589868350242
600,-0.0038909912109375,0.0000362819499748648
601,-0.00431346893310547,0.0000457192103863314
602,-0.00405502319335938,0.0000543416563036036
603,-0.00417709350585938,0.0000428908331067646
604,-0.0048365592956543,0.0000447973220121691
605,-0.00364160537719727,0.0000394343176659002
606,-0.00481176376342773,0.0000463710345869773
607,-0.00434160232543945,0.0000393621781395421
608,-0.00485849380493164,0.0000376610805396617
609,-0.00467157363891602,0.0000387142147680012
