Wavelength (nm),Absorbance (AU),Std.Dev.
190,0.0716490745544434,0.0000578429220747635
191,0.0702743530273438,0.0000615655680525948
192,0.0663557052612305,0.0000401825498536523
193,0.0623326301574707,0.0000341937462491018
194,0.0576162338256836,0.0000350605038877791
195,0.0528826713562012,0.0000351536047374087
196,0.0482110977172852,0.000030443914737193
197,0.0438079833984375,0.0000384349680545552
198,0.0396642684936523,0.0000326955246952294
199,0.0357413291931152,0.0000273262432812307
200,0.0321536064147949,0.0000325482840916212
201,0.0290288925170898,0.0000284503402944231
202,0.0264616012573242,0.0000240383396770564
203,0.0243711471557617,0.0000325002216803445
204,0.0226502418518066,0.0000381700624681355
205,0.0212101936340332,0.0000296910114580632
206,0.0199227333068848,0.000033082672001306
207,0.0187983512878418,0.0000300610753523505
208,0.017888069152832,0.0000375643585037825
209,0.0170149803161621,0.0000311444393020781
210,0.0161819458007812,0.0000232136944668543
211,0.015479564666748,0.0000364702503134273
212,0.0148410797119141,0.0000319560951906583
213,0.0142655372619629,0.0000329707983266116
214,0.013728141784668,0.0000331933123954064
215,0.0132083892822266,0.0000277790898473096
216,0.0126791000366211,0.0000308077030094571
217,0.0121116638183594,0.0000378372613626873
218,0.0115485191345215,0.0000293201542482544
219,0.0109472274780273,0.0000325465376111063
220,0.010279655456543,0.0000316908429113641
221,0.00969982147216797,0.0000211662799223543
222,0.00901365280151367,0.0000260067571856878
223,0.00840425491333008,0.0000239334730421718
224,0.00787830352783203,0.0000231560784701124
225,0.00738954544067383,0.0000294256245098937
226,0.00704622268676758,0.0000342643250794632
227,0.0066986083984375,0.0000237427080351554
228,0.00645685195922852,0.0000238150207155844
229,0.00624179840087891,0.0000302904213214723
230,0.0060577392578125,0.0000324205437671116
231,0.00593852996826172,0.0000273631415088722
232,0.00583744049072266,0.0000307264111776686
233,0.00573873519897461,0.0000354819396444047
234,0.00556325912475586,0.0000264107098132741
235,0.00551319122314453,0.0000365123089182611
236,0.00535488128662109,0.0000473667577783839
237,0.00520467758178711,0.0000418219081146122
238,0.00511407852172852,0.0000302627286108822
239,0.00502777099609375,0.0000292366706572312
240,0.00490808486938477,0.0000275102395248169
241,0.00483989715576172,0.0000299170194316354
242,0.00477313995361328,0.0000258846166305847
243,0.00474977493286133,0.0000272522969513743
244,0.00469493865966797,0.0000305585288429491
245,0.00460481643676758,0.0000307301109261682
246,0.00455474853515625,0.0000335408423071671
247,0.00442695617675781,0.0000265014879154872
248,0.00429153442382813,0.0000305984959116681
249,0.00410366058349609,0.0000267300084805622
250,0.00392007827758789,0.0000237253441549148
251,0.00369071960449219,0.0000359806734866776
252,0.0034794807434082,0.0000320511195694085
253,0.00320911407470703,0.0000286489463145018
254,0.00306224822998047,0.0000288353447939585
255,0.00288915634155273,0.0000204529931856294
256,0.00261306762695312,0.0000251557023449544
257,0.00246667861938477,0.000034969593505681
258,0.00222873687744141,0.0000345715160929825
259,0.00205659866333008,0.0000289641778280903
260,0.00193977355957031,0.000039778766331151
261,0.001861572265625,0.0000412973739610744
262,0.0017237663269043,0.0000430779555240257
263,0.00150871276855469,0.0000334424022176398
264,0.00143718719482422,0.000033514563352214
265,0.0013575553894043,0.0000476443605139948
266,0.00124025344848633,0.0000435986688639162
267,0.00115346908569336,0.0000399349340748026
268,0.00100946426391602,0.0000347772543927984
269,0.00108575820922852,0.0000384223949179908
270,0.00104618072509766,0.0000390591925006806
271,0.00100421905517578,0.0000413352087707098
272,0.000986576080322266,0.0000470875184744819
273,0.00101995468139648,0.0000489960331591206
274,0.00109720230102539,0.0000447884388162605
275,0.00116539001464844,0.0000335374526313316
276,0.00116777420043945,0.0000377055798142353
277,0.00112819671630859,0.0000367156870871847
278,0.00114107131958008,0.0000476574825604799
279,0.00122451782226562,0.0000474614686099798
280,0.0012049674987793,0.0000407688798900586
281,0.00106239318847656,0.000040432866908455
282,0.000983715057373047,0.0000302894830001016
283,0.000914573669433594,0.0000307827840262974
284,0.000857830047607422,0.0000220817310686461
285,0.000758647918701172,0.0000248504909912021
286,0.000566482543945313,0.0000295927307116057
287,0.000390529632568359,0.0000329501031901485
288,0.000347137451171875,0.0000255491956916082
289,0.000164985656738281,0.0000285386142872715
290,0.00000619888305664063,0.0000324328146484275
291,-0.0000958442687988281,0.0000400216673398279
292,-0.000271797180175781,0.0000274828478894198
293,-0.000416278839111328,0.0000270187269633476
294,-0.000504493713378906,0.0000259394593053785
295,-0.000648021697998047,0.0000268705248621977
296,-0.000830650329589844,0.0000314432438569247
297,-0.00101900100708008,0.0000283442491604422
298,-0.000987052917480469,0.0000299046666463223
299,-0.00117921829223633,0.000036914865303156
300,-0.00122737884521484,0.0000409677774022977
301,-0.00133895874023437,0.0000373176488899145
302,-0.00145769119262695,0.0000355267683920925
303,-0.00142574310302734,0.0000333683815706652
304,-0.00152778625488281,0.0000339015794019494
305,-0.00156736373901367,0.0000347257294770489
306,-0.00159502029418945,0.0000351447101058822
307,-0.00164461135864258,0.0000287321591968915
308,-0.00163364410400391,0.0000365861835579267
309,-0.00171899795532227,0.0000469678549558125
310,-0.00172281265258789,0.0000627344478595843
311,-0.00174379348754883,0.0000465691970767969
312,-0.0017247200012207,0.0000335018403286544
313,-0.00174713134765625,0.0000363101398655745
314,-0.00180625915527344,0.0000341629781496009
315,-0.00175714492797852,0.0000411878015009536
316,-0.00195026397705078,0.0000348254387598232
317,-0.00187540054321289,0.0000410848551545663
318,-0.00194501876831055,0.000030331678724762
319,-0.00192785263061523,0.0000352214533092869
320,-0.00191926956176758,0.0000441956282780897
321,-0.00205421447753906,0.0000546025394945087
322,-0.00204277038574219,0.0000345871327219489
323,-0.00197124481201172,0.0000506177860216353
324,-0.00209331512451172,0.0000639281975533227
325,-0.00206995010375977,0.0000560288733601434
326,-0.00212717056274414,0.0000544513794846352
327,-0.0020604133605957,0.0000439272887468483
328,-0.00210189819335937,0.0000427933123515788
329,-0.00199794769287109,0.0000402976772285397
330,-0.00207376480102539,0.0000488531246113274
331,-0.00213384628295898,0.0000657931609902447
332,-0.00213527679443359,0.0000673151541475482
333,-0.00214767456054687,0.0000577731067943288
334,-0.00217485427856445,0.000038851256664745
335,-0.00224542617797852,0.0000506963345851806
336,-0.00228261947631836,0.0000417409586797264
337,-0.00232934951782227,0.0000593513830235174
338,-0.00231027603149414,0.0000537717150904996
339,-0.00233793258666992,0.0000575157335346041
340,-0.00238132476806641,0.0000497946777347584
341,-0.00252246856689453,0.0000462458299873517
342,-0.00252962112426758,0.0000439518685218922
343,-0.00253105163574219,0.0000398779573956586
344,-0.00255441665649414,0.0000295489988901729
345,-0.00254440307617187,0.0000280402954635413
346,-0.00269794464111328,0.0000262796331300379
347,-0.00267124176025391,0.0000282231612066491
348,-0.0028386116027832,0.000030315745020394
349,-0.00274991989135742,0.0000394494502061968
350,-0.00281572341918945,0.0000304000049973518
351,-0.00278902053833008,0.0000446727965250134
352,-0.00290393829345703,0.0000493647380886685
353,-0.00305795669555664,0.0000541614389924313
354,-0.00313663482666016,0.0000589949900416091
355,-0.00322198867797852,0.0000425929303164585
356,-0.00322628021240234,0.0000416803139050561
357,-0.00322246551513672,0.0000470947610367757
358,-0.00322055816650391,0.0000500508688155941
359,-0.00329017639160156,0.000057068264738041
360,-0.00322532653808594,0.0000474662590685951
361,-0.00336551666259766,0.000036177613509878
362,-0.00350379943847656,0.0000370009965171556
363,-0.00349092483520508,0.00003434138044845
364,-0.00347232818603516,0.0000433003848447666
365,-0.00352334976196289,0.0000602354997147478
366,-0.00323677062988281,0.0000416052375446809
367,-0.00319528579711914,0.0000505424894876055
368,-0.00334596633911133,0.000062785168719685
369,-0.00319004058837891,0.0000949804082265689
370,-0.00336694717407227,0.0000755301629607053
371,-0.00322055816650391,0.0000640401357272888
372,-0.00316524505615234,0.0000498688236793325
373,-0.00312614440917969,0.000077329992009291
374,-0.00306558609008789,0.0000730074907097912
375,-0.00291681289672852,0.0000960610912086061
376,-0.00295639038085937,0.0000735010103912265
377,-0.0026397705078125,0.0000645669910964702
378,-0.00247955322265625,0.0000660656118855209
379,-0.00278043746948242,0.0000816631489764508
380,-0.00287246704101562,0.0000648743919621157
381,-0.00290298461914062,0.0000715970635771305
382,-0.00259923934936523,0.0000607597949415075
383,-0.00286626815795898,0.0000450945281195684
384,-0.00264406204223633,0.0000536341127909286
385,-0.00281810760498047,0.0000416380147852254
386,-0.00261259078979492,0.0000522871023631012
387,-0.00249290466308594,0.000100017659564701
388,-0.00267171859741211,0.0000857007845014693
389,-0.00318336486816406,0.0000691496087810421
390,-0.00276279449462891,0.0000785971716292461
391,-0.00259065628051758,0.0000630976470005894
392,-0.0023493766784668,0.0000845522507286832
393,-0.0026402473449707,0.0000582883448496395
394,-0.00290250778198242,0.0000661893947580743
395,-0.00290441513061523,0.0000735412145948972
396,-0.00276899337768555,0.0000428278348717344
397,-0.00233793258666992,0.0000432307520788807
398,-0.00246000289916992,0.0000631912690815277
399,-0.00294780731201172,0.0000586247967259774
400,-0.00277042388916016,0.0000447820925974804
401,-0.00293779373168945,0.000063048980703688
402,-0.00294208526611328,0.0000657222771394531
403,-0.00267219543457031,0.0000793156658684988
404,-0.00262308120727539,0.0000852098795793582
405,-0.00270843505859375,0.0000610723977912345
406,-0.00318241119384766,0.0000605958536925816
407,-0.00318145751953125,0.000058401359731484
408,-0.00262689590454102,0.0000796874645586029
409,-0.0029759407043457,0.0000694285382202198
410,-0.00315666198730469,0.0000651454499727182
411,-0.00290584564208984,0.0000635733205126447
412,-0.00256681442260742,0.0000626310677599116
413,-0.00299406051635742,0.0000656443896841165
414,-0.00314998626708984,0.000057210524014427
415,-0.00302648544311523,0.0000556879660193317
416,-0.00310277938842773,0.0000623399619880837
417,-0.0030980110168457,0.0000572224457713753
418,-0.00295543670654297,0.0000504276430755702
419,-0.00304937362670898,0.0000393650662588606
420,-0.00285100936889648,0.0000404504364860054
421,-0.00231552124023437,0.0000474638638997242
422,-0.00327968597412109,0.000042100967766997
423,-0.00321769714355469,0.0000565600028876286
424,-0.0032963752746582,0.0000616449206154306
425,-0.00334692001342773,0.0000533897938017565
426,-0.00328588485717773,0.0000532074208446875
427,-0.00276803970336914,0.0000516582146598147
428,-0.00338125228881836,0.0000491974874876066
429,-0.00249338150024414,0.0000547158951728018
430,-0.00325489044189453,0.0000579214863514818
431,-0.00388336181640625,0.0000691890552239428
432,-0.00354576110839844,0.0000639566448559002
433,-0.00300788879394531,0.0000795932493695246
434,-0.00357389450073242,0.0000623800695858499
435,-0.00370693206787109,0.0000551875926505414
436,-0.00326919555664062,0.0000561201074963505
437,-0.00337123870849609,0.0000587158696938741
438,-0.00325632095336914,0.0000622870534227448
439,-0.00350332260131836,0.0000593743644253106
440,-0.00320529937744141,0.0000434929338266571
441,-0.00273847579956055,0.0000337848464659087
442,-0.00386810302734375,0.000042798625321039
443,-0.00327110290527344,0.0000572442958773
444,-0.00368499755859375,0.0000628141336799801
445,-0.00344944000244141,0.0000541960620283031
446,-0.00338077545166016,0.0000479179826522724
447,-0.00378179550170898,0.0000636698143508946
448,-0.00355243682861328,0.0000530683553922662
449,-0.00344085693359375,0.0000354931521394371
450,-0.00383234024047852,0.0000484312588714394
451,-0.00363779067993164,0.0000581672930213622
452,-0.00374412536621094,0.0000473211331500279
453,-0.0038604736328125,0.0000563687273892311
454,-0.00363397598266602,0.0000577888471772233
455,-0.00381088256835937,0.0000692514661393436
456,-0.00383377075195312,0.0000606970811753472
457,-0.00348949432373047,0.0000437769234126073
458,-0.00369071960449219,0.0000642581196896477
459,-0.00394058227539062,0.0000548341999491312
460,-0.00391674041748047,0.0000553901316986451
461,-0.00389814376831055,0.0000695512397089711
462,-0.00399637222290039,0.0000647796924504917
463,-0.00344324111938477,0.0000634981683722833
464,-0.00377893447875977,0.0000384260933263889
465,-0.0038914680480957,0.0000386936533474783
466,-0.00423288345336914,0.0000602043500109466
467,-0.00393486022949219,0.0000721286147642986
468,-0.00397634506225586,0.0000565951673375811
469,-0.00403404235839844,0.0000411698562493431
470,-0.00385284423828125,0.0000492321376767742
471,-0.00384044647216797,0.0000460265198999945
472,-0.00376319885253906,0.0000541887195965325
473,-0.00382852554321289,0.0000673404824978246
474,-0.00389909744262695,0.0000655004876465691
475,-0.00372123718261719,0.0000422727637933365
476,-0.00409555435180664,0.0000412071184167257
477,-0.00406122207641602,0.0000439867740483908
478,-0.00388336181640625,0.0000664636424408948
479,-0.00379657745361328,0.0000895438735527458
480,-0.00394964218139648,0.0000592209866253015
481,-0.00409603118896484,0.0000470464562278833
482,-0.00411796569824219,0.0000411760689522606
483,-0.0038151741027832,0.0000465826219913874
484,-0.00425434112548828,0.0000607644724779426
485,0.0021824836730957,0.0000457192103863314
486,-0.00795507431030273,0.0000502752370761659
487,-0.00489997863769531,0.0000690047789006831
488,-0.00499439239501953,0.0000646760659527861
489,-0.00398731231689453,0.000051511656859613
490,-0.00424385070800781,0.0000513226104477561
491,-0.00419807434082031,0.0000715970635771305
492,-0.0040583610534668,0.0000598245379281294
493,-0.00402355194091797,0.0000685784011396286
494,-0.00422382354736328,0.0000689240030833631
495,-0.00401926040649414,0.0000577406287030555
496,-0.00422430038452148,0.0000787734408066656
497,-0.00426483154296875,0.0000862679996924261
498,-0.00396871566772461,0.0000853152161005805
499,-0.00406217575073242,0.0000579293369189279
500,-0.00433444976806641,0.0000589680050413218
501,-0.00411033630371094,0.0000711686447403169
502,-0.00418806076049805,0.0000792712196716097
503,-0.00419378280639648,0.0000694596430974846
504,-0.0042719841003418,0.0000724604230827775
505,-0.00409555435180664,0.000073428277698618
506,-0.00441503524780273,0.0000564735058111722
507,-0.00443410873413086,0.000052913887018513
508,-0.00428867340087891,0.0000662185875032285
509,-0.00444793701171875,0.0000630471775268218
510,-0.00428104400634766,0.0000748406515262166
511,-0.00428962707519531,0.0000694006957235587
512,-0.00426340103149414,0.0000631768747148076
513,-0.00430107116699219,0.00006020340582893
514,-0.00443410873413086,0.0000540311420002704
515,-0.00438928604125977,0.0000594002078744517
516,-0.00432968139648438,0.0000642209552939287
517,-0.0045018196105957,0.0000615119934082031
518,-0.00443744659423828,0.0000616412320637076
519,-0.00455665588378906,0.0000642811154525951
520,-0.00451803207397461,0.0000648726395237529
521,-0.00441551208496094,0.0000632595975943642
522,-0.0044245719909668,0.0000580254201705027
523,-0.00430440902709961,0.0000586848819978443
524,-0.00455236434936523,0.0000664431131299986
525,-0.00450611114501953,0.000053058714293699
526,-0.00455617904663086,0.0000545619238350174
527,-0.00450801849365234,0.000047331942957607
528,-0.00440788269042969,0.0000467263920974393
529,-0.00450849533081055,0.0000482737278404899
530,-0.00450038909912109,0.0000557134788925739
531,-0.00442886352539063,0.0000520353669537914
532,-0.00432872772216797,0.0000559141130426339
533,-0.0042729377746582,0.0000540711050903049
534,-0.00439643859863281,0.0000687092397223825
535,-0.00456857681274414,0.0000790960598248771
536,-0.00458049774169922,0.0000770693358191411
537,-0.00432062149047852,0.000064633865263641
538,-0.00438356399536133,0.0000657603218761498
539,-0.00448274612426758,0.0000540290378609312
540,-0.00454807281494141,0.0000523620613166844
541,-0.00454473495483398,0.0000531924620337843
542,-0.0045170783996582,0.0000611300773425776
543,-0.00459480285644531,0.0000620126678411063
544,-0.00454092025756836,0.0000539806200190656
545,-0.00464582443237305,0.0000411995307085237
546,-0.00453519821166992,0.0000423714826422177
547,-0.00425386428833008,0.000043342373106603
548,-0.00463199615478516,0.0000356911896225204
549,-0.00466060638427734,0.0000497467092733192
550,-0.00466489791870117,0.0000467725968733516
551,-0.00452327728271484,0.0000489298591412188
552,-0.00451040267944336,0.0000465386715048303
553,-0.00452375411987305,0.000034898812193421
554,-0.00461053848266602,0.000033574720243491
555,-0.0043330192565918,0.0000273963592953171
556,-0.00459575653076172,0.0000335416896726017
557,-0.00458192825317383,0.0000406390045594367
558,-0.00470781326293945,0.0000485238920126198
559,-0.00455522537231445,0.0000601212052317738
560,-0.00443458557128906,0.0000447071391836218
561,-0.00468301773071289,0.0000463465113240707
562,-0.00453853607177734,0.0000469605928212571
563,-0.00449609756469727,0.0000435856290344444
564,-0.00449800491333008,0.0000406068207856059
565,-0.00467443466186523,0.0000382786207689756
566,-0.00459098815917969,0.0000298442545581223
567,-0.00443124771118164,0.0000435556226113301
568,-0.00450754165649414,0.0000527514239325537
569,-0.00440549850463867,0.0000396814761048936
570,-0.00456142425537109,0.0000304275727703577
571,-0.00442171096801758,0.000033951006578001
572,-0.00510644912719727,0.0000404729144158399
573,-0.00417900085449219,0.0000518460373711424
574,-0.00458812713623047,0.0000305659685335872
575,-0.00490760803222656,0.0000286405124931606
576,-0.00417041778564453,0.0000369587250216402
577,-0.00438022613525391,0.0000286762152131323
578,-0.00495100021362305,0.0000218969001936556
579,-0.00468015670776367,0.0000220134083183043
580,-0.00399208068847656,0.0000272752313343228
581,-0.00375175476074219,0.0000215221469524304
582,-0.00534248352050781,0.0000227430580600746
583,-0.00527238845825195,0.0000229470915502836
584,-0.00389766693115234,0.0000303419843100224
585,-0.00432157516479492,0.0000324135297492315
586,-0.00503301620483398,0.0000442958365113175
587,-0.00403213500976563,0.0000407925758408475
588,-0.00488948822021484,0.0000388768525486571
589,-0.00479221343994141,0.0000306189240057731
590,-0.00451278686523438,0.0000324231736326317
591,-0.00475168228149414,0.0000247949590983544
592,-0.00359916687011719,0.0000260455247726914
593,-0.00447463989257813,0.000027406213075091
594,-0.00436687469482422,0.0000308740553033917
595,-0.00453424453735352,0.0000275577226196287
596,-0.00483942031860352,0.0000388549142519218
597,-0.00426483154296875,0.0000367760175244031
598,-0.0042872428894043,0.0000457303988599392
599,-0.00422239303588867,0.0000371902415657815
600,-0.00442743301391602,0.0000327042163839002
601,-0.004608154296875,0.0000480577580450298
602,-0.00445842742919922,0.0000380746334349681
603,-0.00457334518432617,0.0000333385567921795
604,-0.00491762161254883,0.0000250152109031526
605,-0.00427532196044922,0.0000250418968305605
606,-0.00489187240600586,0.0000274895691187691
607,-0.00467300415039063,0.0000245594282818643
608,-0.00492668151855469,0.0000250555127247232
