Wavelength (nm),Absorbance (AU),Std.Dev.
190,0.612573623657227,0.000145556446362916
191,0.598814964294434,0.0000561707290969951
192,0.58506441116333,0.000057625331608683
193,0.571650505065918,0.000054240095746228
194,0.558566093444824,0.0000574653075803113
195,0.5459885597229,0.0000399769023471256
196,0.534248828887939,0.000042218269052621
197,0.52287483215332,0.0000436299485538402
198,0.511692523956299,0.0000336474423017666
199,0.500710010528564,0.0000403047295513091
200,0.489518642425537,0.0000431912875493889
201,0.478635787963867,0.0000327962066660797
202,0.468376636505127,0.0000345213307451616
203,0.458450794219971,0.000039515676839786
204,0.448982238769531,0.0000385250784094685
205,0.43971586227417,0.0000502605365488104
206,0.430466175079346,0.0000471007956546343
207,0.421468257904053,0.0000498129392840052
208,0.412622928619385,0.0000423312170409511
209,0.403917789459229,0.0000417375540060546
210,0.395380020141602,0.0000413523949680026
211,0.387020587921143,0.000030818771645626
212,0.379040718078613,0.0000377402377628343
213,0.370998382568359,0.0000551865626373339
214,0.363513469696045,0.0000472682496158142
215,0.356122970581055,0.0000287178122868375
216,0.349132537841797,0.0000334721344665458
217,0.342206001281738,0.0000322535487748503
218,0.335714340209961,0.0000347707157785186
219,0.329362392425537,0.0000321379047341435
220,0.32326078414917,0.0000319213897958539
221,0.317389011383057,0.0000383083090820971
222,0.311737060546875,0.0000327511116437816
223,0.306088447570801,0.0000362317804582041
224,0.300771713256836,0.0000350231942517723
225,0.29542064666748,0.0000413517076572519
226,0.290387153625488,0.0000303761550670599
227,0.285373210906982,0.0000330379679908622
228,0.280442714691162,0.0000424083591917573
229,0.275804042816162,0.0000444802432195383
230,0.271153926849365,0.0000357246195257957
231,0.266576290130615,0.0000343992652599651
232,0.262250423431396,0.0000395408426284333
233,0.257880687713623,0.0000289047499628721
234,0.253782749176025,0.0000292682476795653
235,0.249735355377197,0.0000370009965171556
236,0.245828628540039,0.0000345155671036246
237,0.242116451263428,0.0000499462739363551
238,0.238584041595459,0.0000465997026527057
239,0.235162258148193,0.0000329380250224172
240,0.231938362121582,0.0000362631445399586
241,0.228820323944092,0.0000273636608468968
242,0.225969314575195,0.0000264435118151169
243,0.223194122314453,0.0000263158388044391
244,0.220571994781494,0.0000270901635137638
245,0.21824312210083,0.0000258950456765676
246,0.215990543365479,0.0000297622411136657
247,0.213999271392822,0.0000329587277428914
248,0.212021350860596,0.0000256496730952851
249,0.210221767425537,0.0000249828088711352
250,0.208521366119385,0.0000416966762377611
251,0.206910610198975,0.0000403962977097664
252,0.20533561706543,0.0000376814511361243
253,0.203803062438965,0.0000305827012203915
254,0.202276229858398,0.0000341796129941128
255,0.200798034667969,0.0000274388608147533
256,0.199318408966064,0.0000296128928469625
257,0.197824001312256,0.0000312100757063934
258,0.196275234222412,0.0000372787862504808
259,0.194584369659424,0.0000498847791504428
260,0.192929267883301,0.0000358112324965044
261,0.191224098205566,0.0000354290329431155
262,0.189459323883057,0.0000451537345930485
263,0.187616348266602,0.0000517846031960995
264,0.185694217681885,0.0000412498593958746
265,0.183859348297119,0.0000443561090900711
266,0.181846141815186,0.0000414299876408497
267,0.179822444915771,0.0000444124603514604
268,0.177814960479736,0.0000537696007991357
269,0.175766468048096,0.0000511439807044675
270,0.173596382141113,0.0000479452589807488
271,0.171536922454834,0.0000479819981941191
272,0.169435501098633,0.0000543458402931619
273,0.167292594909668,0.0000394033138551075
274,0.165162086486816,0.0000314540888482303
275,0.163128852844238,0.0000369756394189493
276,0.161012172698975,0.0000524173968645527
277,0.158952236175537,0.0000536542459157405
278,0.156735897064209,0.0000399107289249089
279,0.154568195343018,0.0000341979019772012
280,0.152586460113525,0.0000301441614943831
281,0.150530815124512,0.000024657023064956
282,0.148563385009766,0.0000264531833223523
283,0.1463942527771,0.0000181515472225361
284,0.144374847412109,0.0000228260109804181
285,0.142297744750977,0.0000308897010182605
286,0.14028263092041,0.0000362341337060524
287,0.138197422027588,0.0000376874847538942
288,0.136241912841797,0.0000318402634314245
289,0.134222507476807,0.0000273662573891854
290,0.132250785827637,0.0000309815746998697
291,0.130301952362061,0.000041377130551413
292,0.128509521484375,0.0000337486530651819
293,0.126711368560791,0.0000353358534451414
294,0.12488842010498,0.0000428304892976487
295,0.123150825500488,0.0000253817825941947
296,0.12145471572876,0.0000263902551689562
297,0.119741439819336,0.0000320573263012458
298,0.118101119995117,0.0000400415468281128
299,0.11634635925293,0.00003720705071537
300,0.114743709564209,0.0000384098176657142
301,0.113184928894043,0.0000463428317153694
302,0.111577033996582,0.0000412670811380081
303,0.109996318817139,0.0000542222768824651
304,0.108523368835449,0.000040196693659037
305,0.106906890869141,0.0000397165566657965
306,0.105382919311523,0.0000415792705711947
307,0.103954792022705,0.0000388563771903908
308,0.102471828460693,0.0000468866972714318
309,0.100978374481201,0.0000437574418917223
310,0.0994839668273926,0.0000313835294159408
311,0.0981030464172363,0.000047477035833195
312,0.0967216491699219,0.0000450945281195684
313,0.0953507423400879,0.0000353406790994411
314,0.0940389633178711,0.0000337823226032261
315,0.0927548408508301,0.0000354250216399378
316,0.0913600921630859,0.0000309696465339599
317,0.0900363922119141,0.0000369202543908107
318,0.0887107849121094,0.0000476383947525407
319,0.087554931640625,0.0000489101056974757
320,0.0861930847167969,0.0000407549346596558
321,0.0849785804748535,0.0000487179649730382
322,0.0836977958679199,0.0000508016230362614
323,0.0824322700500488,0.0000481085921882636
324,0.0813384056091309,0.0000526068312166519
325,0.0801005363464356,0.0000522936247983992
326,0.0788240432739258,0.000046671616757363
327,0.0776667594909668,0.0000392638556808164
328,0.0765180587768555,0.0000407340078625586
329,0.075279712677002,0.0000390795615959715
330,0.0740561485290527,0.0000380985131023605
331,0.0730094909667969,0.0000464934568777028
332,0.0719003677368164,0.0000532373258569576
333,0.0707035064697266,0.0000546285592908363
334,0.0695352554321289,0.0000392247475237954
335,0.0684080123901367,0.0000455210939142712
336,0.067258358001709,0.0000468939708496649
337,0.0661845207214356,0.0000555551102101907
338,0.0650644302368164,0.0000514509282360176
339,0.0639991760253906,0.000039515676839786
340,0.0630698204040527,0.0000450831818396512
341,0.0619359016418457,0.000037895056282853
342,0.0608606338500977,0.00005430817278285
343,0.0598931312561035,0.0000399142894263679
344,0.0588135719299316,0.0000382704524452949
345,0.0578799247741699,0.0000518548077403789
346,0.0569643974304199,0.0000467227424059255
347,0.0558695793151856,0.0000331041428255969
348,0.0549259185791016,0.0000300539835246218
349,0.0540928840637207,0.0000426009370081107
350,0.0531649589538574,0.0000519861857258085
351,0.0523567199707031,0.0000492286737553602
352,0.0515103340148926,0.0000471188948710116
353,0.0506291389465332,0.0000591037685995749
354,0.0498051643371582,0.0000572035685088026
355,0.0489406585693359,0.0000419677654087293
356,0.0481176376342773,0.0000464787832283306
357,0.0473141670227051,0.0000593647899224142
358,0.046292781829834,0.0000603806525212713
359,0.0455522537231445,0.0000499838168387553
360,0.0446381568908691,0.0000466813592930619
361,0.0438518524169922,0.0000590989596226828
362,0.0431203842163086,0.0000584295792966211
363,0.0423040390014648,0.0000655109008027748
364,0.0415730476379395,0.0000653336514293805
365,0.0407238006591797,0.0000650441540722317
366,0.0401439666748047,0.000068526991170845
367,0.0393414497375488,0.0000511839768722295
368,0.0385074615478516,0.0000506806346116983
369,0.0379958152770996,0.0000490679105859255
370,0.03717041015625,0.0000616633600644432
371,0.036677360534668,0.000062964175568558
372,0.0358796119689941,0.000057781961287312
373,0.0351629257202148,0.0000895616464916001
374,0.0345301628112793,0.0000636323063568584
375,0.0338459014892578,0.00006124341719819
376,0.0332040786743164,0.000090696884346626
377,0.032623291015625,0.0000913737454757956
378,0.0320878028869629,0.0000776425029028973
379,0.0312490463256836,0.0000605451764841411
380,0.0306868553161621,0.0000672712290830683
381,0.0300350189208984,0.0000772844038614407
382,0.0296506881713867,0.0000617333797398459
383,0.0289921760559082,0.0000562233272125506
384,0.0285797119140625,0.0000624674876872501
385,0.0278782844543457,0.0000782710438868835
386,0.0271787643432617,0.0000878597534784712
387,0.0268697738647461,0.0000653823559686266
388,0.0262317657470703,0.000065010936611764
389,0.0255460739135742,0.0000596713646353174
390,0.025177001953125,0.0000407451701585447
391,0.0248212814331055,0.0000344289966961634
392,0.0241837501525879,0.0000425034198014153
393,0.023613452911377,0.000042970939229606
394,0.0231380462646484,0.0000642333458150273
395,0.0228533744812012,0.0000617830823392697
396,0.0223512649536133,0.0000807489621647583
397,0.021970272064209,0.00011621725805008
398,0.0213789939880371,0.0000792540080003484
399,0.0207877159118652,0.0000703637817543683
400,0.0204677581787109,0.0000720229340666006
401,0.0201449394226074,0.0000808797913109436
402,0.0197463035583496,0.000058439307021536
403,0.0194382667541504,0.0000717540905226772
404,0.0190768241882324,0.0000661533153459136
405,0.0187311172485352,0.0000720434513980463
406,0.0181169509887695,0.0000559049627117749
407,0.0178170204162598,0.0000729592017212463
408,0.0177054405212402,0.000059857784603462
409,0.0171236991882324,0.0000729124399916654
410,0.0167551040649414,0.0000987064435219023
411,0.0166692733764648,0.0000651052997659387
412,0.0164632797241211,0.0000589583645480108
413,0.0160403251647949,0.0000513314702485122
414,0.0156660079956055,0.0000580469680206749
415,0.015465259552002,0.0000658864038445125
416,0.0151453018188477,0.000056422148398308
417,0.0147576332092285,0.0000695218111019613
418,0.0145478248596191,0.0000446371540077214
419,0.0143327713012695,0.0000362568738941328
420,0.0141787528991699,0.0000427341610159972
421,0.0138998031616211,0.000056332412528876
422,0.0132226943969727,0.0000601013468645163
423,0.0129756927490234,0.0000567255873030207
424,0.0128288269042969,0.0000488566151590862
425,0.0126509666442871,0.0000460475103599083
426,0.0126180648803711,0.0000359933099236049
427,0.0125136375427246,0.0000419108397221748
428,0.0118732452392578,0.0000619814941759946
429,0.0120782852172852,0.0000569296440333841
430,0.0115475654602051,0.0000589843902638199
431,0.0111904144287109,0.0000556277092458845
432,0.0111632347106934,0.00006124341719819
433,0.0112671852111816,0.0000592459375371417
434,0.0107474327087402,0.0000454573642265815
435,0.0105280876159668,0.0000557338807824084
436,0.0105271339416504,0.0000515712117528713
437,0.010249137878418,0.0000441106588888157
438,0.0102314949035645,0.0000441647492327282
439,0.00988054275512695,0.0000452719152504651
440,0.00979137420654297,0.0000634354735774418
441,0.00984048843383789,0.0000510182335017237
442,0.00915861129760742,0.0000391202679692961
443,0.00935840606689453,0.0000438638352358823
444,0.00903558731079102,0.0000647445834064243
445,0.00892066955566406,0.0000440345626091583
446,0.00878715515136719,0.0000309916641775022
447,0.00859308242797852,0.0000417034919816708
448,0.00853204727172852,0.0000645511423305016
449,0.00844192504882813,0.0000706668807416862
450,0.0081639289855957,0.0000414916833066391
451,0.00808858871459961,0.0000344694232767044
452,0.00800657272338867,0.0000516384041074132
453,0.00782918930053711,0.0000539953604800528
454,0.00766754150390625,0.0000502921938836487
455,0.00757598876953125,0.0000463084746017707
456,0.00743341445922852,0.0000558917429224977
457,0.00739669799804688,0.000055491636185354
458,0.00734186172485352,0.0000431939196397993
459,0.00702619552612305,0.0000592008262888448
460,0.00688266754150391,0.0000598653812510722
461,0.00678491592407227,0.0000430660779569076
462,0.00671720504760742,0.0000494326298105656
463,0.00685024261474609,0.0000390475482470213
464,0.0065312385559082,0.0000513414356968462
465,0.0063481330871582,0.0000608766255310627
466,0.00591087341308594,0.0000545025080416315
467,0.00610971450805664,0.0000496002335508188
468,0.00592517852783203,0.0000563677189590259
469,0.00591135025024414,0.0000644736033928085
470,0.00592279434204102,0.0000540574368315445
471,0.00581216812133789,0.000072279768543204
472,0.00567150115966797,0.0000620181674495282
473,0.00552177429199219,0.0000470331637080391
474,0.00548219680786133,0.0000603476939043593
475,0.00539112091064453,0.0000625947535759809
476,0.00524520874023438,0.0000479973965918031
477,0.00528287887573242,0.0000288294302557873
478,0.00499057769775391,0.0000424967323523436
479,0.00502443313598633,0.0000587439381740953
480,0.0049433708190918,0.0000571399360563791
481,0.00483512878417969,0.0000535428892274781
482,0.00464820861816406,0.0000558327241886576
483,0.00468254089355469,0.000071269211695699
484,0.0043792724609375,0.0000560075640107194
485,0.00713300704956055,0.0000617646786325854
486,0.00274658203125,0.0000353880963167343
487,0.00399541854858398,0.0000453935450664992
488,0.00400829315185547,0.0000581672930213622
489,0.00413990020751953,0.0000686248028469315
490,0.00397872924804687,0.0000890856372692623
491,0.00379562377929687,0.000072095507631421
492,0.00385904312133789,0.0000634390578062538
493,0.00396633148193359,0.0000601041841758298
494,0.0037837028503418,0.0000580871040484878
495,0.00370645523071289,0.0000576519590961935
496,0.00346469879150391,0.0000716779992069761
497,0.00341987609863281,0.0000804372134550459
498,0.00348329544067383,0.0000608588817358036
499,0.00342798233032227,0.0000715859476233958
500,0.00334739685058594,0.0000899214248447622
501,0.00342035293579102,0.0000665251923621952
502,0.0031733512878418,0.0000625856717377113
503,0.00305271148681641,0.0000648200443421283
504,0.00289773941040039,0.0000454210858977872
505,0.00305843353271484,0.0000495440461937397
506,0.00285196304321289,0.0000563737692696706
507,0.00281000137329102,0.0000617959616728236
508,0.00278472900390625,0.0000533535821638205
509,0.0027008056640625,0.00007290776216914
510,0.00270652770996094,0.0000792224435577415
511,0.00264263153076172,0.0000755196259335452
512,0.00257205963134766,0.0000520484740993277
513,0.00249958038330078,0.0000794030518706012
514,0.00241661071777344,0.0000742780063991356
515,0.00229835510253906,0.0000609344903973766
516,0.00240278244018555,0.0000508038608453516
517,0.0023036003112793,0.0000537526834743613
518,0.0022740364074707,0.0000788686353318003
519,0.00214338302612305,0.0000668559025955305
520,0.00209903717041016,0.0000622633211956053
521,0.0020756721496582,0.0000561929881543764
522,0.002105712890625,0.0000653092855391911
523,0.00204563140869141,0.0000469835857299187
524,0.00200176239013672,0.0000479357733225334
525,0.00183629989624023,0.0000600265827342262
526,0.00178956985473633,0.0000736462602853862
527,0.0019378662109375,0.0000685535301624662
528,0.00177764892578125,0.0000710855299132699
529,0.00173234939575195,0.000046099328167883
530,0.00175142288208008,0.0000588802183786769
531,0.00162601470947266,0.0000566574050756611
532,0.00159788131713867,0.0000630832312711346
533,0.00157737731933594,0.0000660810974249616
534,0.00150394439697266,0.000061659672615789
535,0.00137233734130859,0.0000523522901484999
536,0.00143957138061523,0.0000464151438091559
537,0.00148773193359375,0.0000433607301857347
538,0.00136423110961914,0.0000398130472952477
539,0.00136041641235352,0.0000480979569295533
540,0.00123691558837891,0.0000535301479987991
541,0.00127172470092773,0.00005309833872633
542,0.00128507614135742,0.0000462187806069044
543,0.00124120712280273,0.0000561717410636855
544,0.0010986328125,0.0000622888786041562
545,0.00114154815673828,0.0000434615555260583
546,0.00120210647583008,0.0000397766227899218
547,0.00119781494140625,0.0000364140966078532
548,0.00100469589233398,0.0000381708070682325
549,0.00100231170654297,0.0000569665760140412
550,0.000844001770019531,0.0000542096953345622
551,0.000908851623535156,0.0000408698405089235
552,0.000899791717529297,0.0000433567971802222
553,0.000838279724121094,0.0000444342132901136
554,0.000802040100097656,0.0000366467271936451
555,0.000899791717529297,0.0000480908654504245
556,0.000767230987548828,0.0000435543175152922
557,0.000723838806152344,0.0000510572148570274
558,0.000692844390869141,0.0000550886235636798
559,0.000715255737304688,0.000034330619666123
560,0.000763416290283203,0.000036502966749515
561,0.000704288482666016,0.0000432964463575445
562,0.000631809234619141,0.0000474578754486854
563,0.00060272216796875,0.0000444150200736809
564,0.000638961791992188,0.0000320679636180858
565,0.000520706176757813,0.0000444738530226545
566,0.000589847564697266,0.0000568796978532916
567,0.000576019287109375,0.000044921502307455
568,0.000547885894775391,0.0000407193527054509
569,0.000598430633544922,0.0000583994130519371
570,0.000512599945068359,0.000042876915150186
571,0.000463485717773438,0.0000452078342958551
572,0.000194072723388672,0.0000418579108359063
573,0.000576496124267578,0.0000324547153968537
574,0.000471115112304688,0.0000417783917778075
575,0.000147342681884766,0.0000334143447229478
576,0.000519275665283203,0.0000281788168322701
577,0.0004425048828125,0.0000324345672525004
578,0.0000677108764648438,0.0000356824289961213
579,0.000198841094970703,0.0000350815743910583
580,0.000467777252197266,0.0000322297476915722
581,0.000548362731933594,0.0000311161365445028
582,-0.0000529289245605469,0.0000249754130470164
583,-0.0000939369201660156,0.0000305124554208891
584,0.000514984130859375,0.0000420624703511652
585,0.000243663787841797,0.0000317687724325893
586,-0.000106334686279297,0.0000330500096343297
587,0.000372886657714844,0.0000258434082486243
588,-0.000104904174804687,0.0000228415699988842
589,-0.00000286102294921875,0.0000366187964155905
590,0.0000901222229003906,0.0000280255943756634
591,-0.00000810623168945313,0.0000366017171142492
592,0.000392436981201172,0.000025421503280265
593,-0.0000472068786621094,0.0000244933754851586
594,0.0000429153442382813,0.0000259230186855712
595,0.00000238418579101562,0.0000372391198409451
596,-0.000162601470947266,0.000035672869495415
597,0.00012969970703125,0.0000310035838724536
598,-0.000095367431640625,0.0000290699619279799
599,0.0000858306884765625,0.0000367249751437682
600,-0.000102996826171875,0.0000362325648911357
601,-0.000165939331054687,0.0000351843143453255
602,-0.0000829696655273438,0.0000421454997901618
603,-0.000105381011962891,0.0000362302115413887
604,-0.000320911407470703,0.0000392964160805119
605,-0.0000395774841308594,0.0000325124624895683
606,-0.000302791595458984,0.000028426354335648
607,-0.000156402587890625,0.0000321458630537528
608,-0.000276088714599609,0.0000354995576894151
609,-0.000239849090576172,0.000036614915455756
610,-0.000182628631591797,0.0000269834644215321
611,-0.00043487548828125,0.000027596371214123
612,-0.00026702880859375,0.0000304695772623144
613,-0.000202655792236328,0.0000310768352063901
614,-0.000323295593261719,0.0000398829461045945
615,-0.000206947326660156,0.0000378004367686953
616,-0.000425815582275391,0.0000316729009731591
617,-0.000355720520019531,0.0000338075527513345
618,-0.000342369079589844,0.000037510600462557
619,-0.000361442565917969,0.0000434667868158613
620,-0.000322341918945312,0.0000461375373150707
621,-0.000548362731933594,0.0000325386772887499
622,-0.000314235687255859,0.0000331564732860422
623,-0.000506401062011719,0.0000274828478894198
624,-0.000474929809570313,0.0000398208991930255
625,-0.000507354736328125,0.0000412346983130044
626,-0.000497817993164063,0.000030101702914465
627,-0.000520229339599609,0.0000311398760811042
628,-0.000608921051025391,0.0000266245348298089
629,-0.00048065185546875,0.0000342427517039847
630,-0.000583648681640625,0.0000252081847709226
631,-0.000509738922119141,0.0000295739964208732
632,-0.000586509704589844,0.0000407577240874445
633,-0.0005950927734375,0.000028716327714625
634,-0.000597476959228516,0.0000258335084557889
635,-0.000576019287109375,0.0000383713204793978
636,-0.000517368316650391,0.0000328109358264107
637,-0.000574588775634766,0.0000443279065959629
638,-0.000598907470703125,0.0000470101950482073
639,-0.000660896301269531,0.0000414985327187244
640,-0.000729084014892578,0.0000542243735232981
641,-0.000693798065185547,0.0000481487486319135
642,-0.000665187835693359,0.0000376557974750616
643,-0.000712871551513672,0.000044538990013296
644,-0.000676155090332031,0.0000452970202905194
645,-0.000703811645507813,0.0000448264972614364
646,-0.000783920288085938,0.0000444470041632563
647,-0.000558853149414063,0.0000400777305588759
648,-0.000681400299072266,0.0000272653302173593
649,-0.000739097595214844,0.0000293361442857209
650,-0.000798225402832031,0.0000303138699163242
651,-0.000772953033447266,0.000044565783455434
652,-0.000714778900146484,0.000037160424841296
653,-0.000711917877197266,0.0000394717781149505
654,-0.000922679901123047,0.0000432701806147986
655,0.00152730941772461,0.000027396878003662
656,-0.000208854675292969,0.0000294970132520728
657,-0.00373077392578125,0.0000416953129552825
658,-0.000648975372314453,0.0000488019012276175
659,-0.000962734222412109,0.000053923726210322
660,-0.000748634338378906,0.0000382882719957461
661,-0.000781536102294922,0.000030964139676814
662,-0.000851631164550781,0.0000313445633498093
663,-0.000829696655273438,0.0000302739964986825
664,-0.000809192657470703,0.0000438093733625159
665,-0.000800609588623047,0.0000492759929383293
666,-0.000856876373291016,0.0000384793109928742
667,-0.000972270965576172,0.0000407137684008742
668,-0.000906467437744141,0.0000312210016915719
669,-0.000896930694580078,0.000034832783058262
670,-0.000886917114257813,0.000045928850126305
671,-0.000843524932861328,0.0000410267044239162
672,-0.000891685485839844,0.0000340362876410349
673,-0.000991344451904297,0.0000303471357902749
674,-0.000830173492431641,0.0000372978416236188
675,-0.000946998596191406,0.0000275097229539552
676,-0.0009307861328125,0.000025453905165524
677,-0.000840663909912109,0.000036087942162445
678,-0.000849723815917969,0.0000394724981597916
679,-0.000928401947021484,0.0000374058919858729
680,-0.000896453857421875,0.0000357445034338761
681,-0.000908374786376953,0.0000366490537976362
682,-0.000940322875976563,0.0000429199799047274
683,-0.000882148742675781,0.0000365675345803029
684,-0.000867843627929688,0.0000398323173722403
685,-0.000876903533935547,0.0000446829748793321
686,-0.000932216644287109,0.0000406746568017951
687,-0.000909328460693359,0.0000380402801506454
688,-0.000956535339355469,0.0000436768260862522
689,-0.000880241394042969,0.0000358501004244461
690,-0.000942230224609375,0.000040717258680986
691,-0.000852108001708984,0.0000355955026149008
692,-0.000978946685791016,0.000041320766840925
693,-0.000957489013671875,0.0000442084881812566
694,-0.000971317291259766,0.0000289690837678988
695,-0.000985622406005859,0.0000280843525544589
696,-0.000964164733886719,0.0000404455177736215
697,-0.000866889953613281,0.0000470875184744819
698,-0.000950813293457031,0.0000473703578511843
699,-0.000990390777587891,0.0000394940934006665
700,-0.0010066032409668,0.0000382437075515514
701,-0.000945091247558594,0.0000339099619600979
702,-0.000890254974365234,0.0000337048323825123
703,-0.000957489013671875,0.0000456532670895565
704,-0.00102806091308594,0.0000358286886186702
705,-0.000960350036621094,0.0000301573586387054
706,-0.000925540924072266,0.000037510600462557
707,-0.000950813293457031,0.0000362983967383502
708,-0.00102949142456055,0.0000294651990994555
709,-0.00107288360595703,0.0000407081833302487
710,-0.001007080078125,0.0000346446069287265
711,-0.00101900100708008,0.0000229508069765243
712,-0.00108671188354492,0.0000231922584275528
713,-0.00101757049560547,0.0000331264577204974
714,-0.000970840454101563,0.0000406767530193893
715,-0.0010833740234375,0.0000334262507788122
716,-0.00107479095458984,0.0000577366907232587
717,-0.00106191635131836,0.0000406690663599858
718,-0.00102567672729492,0.0000387897576332411
719,-0.00106573104858398,0.0000448176198482864
720,-0.00113677978515625,0.0000451134322446472
721,-0.00109481811523437,0.0000348711114860196
722,-0.00118303298950195,0.0000482442807872047
723,-0.00110721588134766,0.0000401046697613453
724,-0.0011906623840332,0.0000407870015615319
725,-0.00118303298950195,0.0000346281954607621
726,-0.00112533569335937,0.0000300308052162467
727,-0.00116491317749023,0.000040768182741829
728,-0.00111865997314453,0.0000508675970195564
729,-0.00115442276000977,0.0000380880675900823
730,-0.00110054016113281,0.0000417987957016203
731,-0.00105810165405273,0.000041332458315986
732,-0.00124168395996094,0.0000509390654032655
733,-0.00129461288452148,0.0000541162908901638
734,-0.00119781494140625,0.0000383439047155451
735,-0.00128889083862305,0.0000366785113408211
736,-0.00123500823974609,0.0000382533675868384
737,-0.00128698348999023,0.0000286628319046681
738,-0.00135231018066406,0.0000354947536353043
739,-0.0012660026550293,0.0000537082501438146
740,-0.00127077102661133,0.0000459585439067635
741,-0.00132560729980469,0.0000354530912312338
742,-0.00130939483642578,0.0000445594055257476
743,-0.0013422966003418,0.0000443163640390422
744,-0.00130987167358398,0.0000567265893713904
745,-0.00139570236206055,0.0000384734015540014
746,-0.00142145156860352,0.0000394025925459893
747,-0.00131702423095703,0.0000319017957376055
748,-0.00140905380249023,0.0000477504263577272
749,-0.00133562088012695,0.0000418191896701935
750,-0.00133132934570312,0.0000376844680657637
751,-0.00133991241455078,0.0000504028379729478
752,-0.00140190124511719,0.0000367164611816406
753,-0.00133991241455078,0.0000405697078263413
754,-0.00129365921020508,0.0000322975785394925
755,-0.0013275146484375,0.0000412429686854719
756,-0.00134897232055664,0.0000345953491688451
757,-0.00133371353149414,0.0000444738530226545
758,-0.00136613845825195,0.0000433187597171594
759,-0.0013885498046875,0.0000477337574638392
760,-0.00136566162109375,0.0000562799163624285
761,-0.00142526626586914,0.0000415840551794151
762,-0.00137662887573242,0.0000394811376735914
763,-0.00138521194458008,0.0000402002288328409
764,-0.00135707855224609,0.000043762637811932
765,-0.00128412246704102,0.0000329233527189554
766,-0.00145578384399414,0.0000377944211829371
767,-0.00142002105712891,0.0000387281609434437
768,-0.00136566162109375,0.0000306059258871098
769,-0.00131654739379883,0.0000336888067609242
770,-0.0012974739074707,0.0000432136552077612
771,-0.00132369995117187,0.0000383809483960186
772,-0.00137567520141602,0.0000257751325493332
773,-0.00143909454345703,0.0000349338139847725
774,-0.00138568878173828,0.0000269771438754166
775,-0.00137424468994141,0.0000328628683309368
776,-0.0013880729675293,0.0000380328079393434
777,-0.00134658813476562,0.0000308961410685792
778,-0.00132036209106445,0.0000259624586827107
779,-0.00125503540039062,0.000036088729721879
780,-0.00128555297851562,0.0000365053025158371
781,-0.00132274627685547,0.0000420955667448109
782,-0.0012974739074707,0.0000454836166769997
783,-0.00139331817626953,0.0000392138772250664
784,-0.00133991241455078,0.0000350037125680222
785,-0.00135421752929687,0.0000402080051211228
786,-0.00142097473144531,0.0000384497547161473
787,-0.00131797790527344,0.0000476872919648986
788,-0.00135040283203125,0.0000434105174131052
789,-0.00138711929321289,0.0000494889436645881
790,-0.00133800506591797,0.0000474147362741264
791,-0.00138282775878906,0.0000464897888995599
792,-0.00140285491943359,0.0000422694019549948
793,-0.0013270378112793,0.000030411689308139
794,-0.00135040283203125,0.0000353012502850181
795,-0.0013728141784668,0.000029608093583873
796,-0.00153255462646484,0.0000601297139529248
797,-0.00144433975219727,0.0000507265993832729
798,-0.00149345397949219,0.0000462691780901255
799,-0.00145244598388672,0.0000406907250436462
800,-0.00149250030517578,0.0000357659656383499
801,-0.00145769119262695,0.0000354338459075151
802,-0.00141191482543945,0.0000388007467522018
803,-0.00150203704833984,0.0000511161871754526
804,-0.00155973434448242,0.0000524358290703721
805,-0.00143909454345703,0.0000506402409007549
806,-0.00142955780029297,0.0000537029580127758
807,-0.00147724151611328,0.0000509256727211876
808,-0.00155353546142578,0.0000520779531153719
809,-0.00144624710083008,0.0000496025255604109
810,-0.0015254020690918,0.0000396700145092168
811,-0.00152349472045898,0.0000382214058444056
812,-0.00147819519042969,0.0000484418209547481
813,-0.00153160095214844,0.0000409018173250583
814,-0.00153779983520508,0.0000411843510982952
815,-0.00154352188110352,0.0000384046375999226
816,-0.00149345397949219,0.0000370194271338067
817,-0.00150108337402344,0.0000369033146081384
818,-0.00158405303955078,0.0000382956943612314
819,-0.00158882141113281,0.0000398850839316978
820,-0.00153827667236328,0.0000360035737629178
821,-0.00158023834228516,0.0000368455068176932
822,-0.00158548355102539,0.0000492309830633833
823,-0.00156545639038086,0.0000390628306181148
824,-0.00164699554443359,0.0000376384336131176
825,-0.00164031982421875,0.0000400784397172434
826,-0.00157690048217773,0.0000397566108319563
827,-0.00159740447998047,0.0000390519152490197
828,-0.00167942047119141,0.0000366250050959361
829,-0.00161409378051758,0.0000444636267974049
830,-0.00173854827880859,0.000044728748811307
831,-0.00178670883178711,0.0000445428186346311
832,-0.00176048278808594,0.0000396829085715874
833,-0.00163745880126953,0.0000355003583018957
834,-0.00164556503295898,0.0000364258024352104
835,-0.00165939331054687,0.0000382080185718034
836,-0.00173377990722656,0.0000468163277546951
837,-0.00176858901977539,0.0000330285036197186
838,-0.00176858901977539,0.0000226572927714667
839,-0.00164175033569336,0.0000253195591966407
840,-0.00175857543945312,0.0000307106822740643
841,-0.00176000595092773,0.0000367814269555605
842,-0.00171804428100586,0.0000349980283675051
843,-0.00168466567993164,0.0000491454663971737
844,-0.00165319442749023,0.0000407939692916614
845,-0.00166845321655273,0.000029650300438634
846,-0.00167274475097656,0.000035407366507199
847,-0.00172042846679687,0.0000300549291983378
848,-0.00166845321655273,0.0000444904656254692
849,-0.00166988372802734,0.0000436833328760218
850,-0.00170230865478516,0.0000377168848184813
851,-0.00166988372802734,0.0000403639204164868
852,-0.0016484260559082,0.0000345312090353519
853,-0.00160837173461914,0.0000462863744190864
854,-0.00170087814331055,0.0000387941536543685
855,-0.00162267684936523,0.0000337326482618198
856,-0.00169467926025391,0.0000292687332138206
857,-0.00158214569091797,0.0000346692095642774
858,-0.00172090530395508,0.0000451663217018685
859,-0.00156641006469727,0.0000503159238136663
860,-0.00165367126464844,0.0000417729490482667
861,-0.00162506103515625,0.0000394199003220189
862,-0.00154256820678711,0.0000400784397172434
863,-0.00153589248657227,0.0000290621392733452
864,-0.00159120559692383,0.0000348531757671445
865,-0.00154590606689453,0.0000391805228366721
866,-0.00152921676635742,0.0000251935232748376
867,-0.00149059295654297,0.0000360516958304651
868,-0.00158119201660156,0.0000454235887817069
869,-0.00153589248657227,0.000053005120701818
870,-0.00159502029418945,0.0000508932925228028
871,-0.00155067443847656,0.0000561089646151753
872,-0.00153589248657227,0.0000435073079845778
873,-0.00146961212158203,0.0000466448142917976
874,-0.00150203704833984,0.0000525073280751069
875,-0.00152873992919922,0.0000584052528959261
876,-0.00157642364501953,0.0000515381341971926
877,-0.00140857696533203,0.0000449139092991509
878,-0.00152873992919922,0.0000568517088259055
879,-0.00147676467895508,0.0000667912532611585
880,-0.0015106201171875,0.0000587700588464944
881,-0.00154399871826172,0.0000590258149356419
882,-0.00157070159912109,0.0000464922342504755
883,-0.00150251388549805,0.0000594317790510505
884,-0.0015568733215332,0.0000559740614996805
885,-0.00151777267456055,0.0000581751104178994
886,-0.00157928466796875,0.0000542075981260064
887,-0.00159215927124023,0.0000465374500654772
888,-0.00140476226806641,0.0000477896943178082
889,-0.0015263557434082,0.0000459647276965557
890,-0.00156116485595703,0.0000551092567804652
891,-0.00153684616088867,0.0000695348920204837
892,-0.00149440765380859,0.0000687687798026385
893,-0.00149726867675781,0.0000744599201047636
894,-0.0014491081237793,0.0000567095518009892
895,-0.00149822235107422,0.0000548756499512322
896,-0.00158214569091797,0.0000529643533027722
897,-0.00165987014770508,0.0000558958108829763
898,-0.0015869140625,0.0000636448114776152
899,-0.001556396484375,0.0000462519753676278
900,-0.00142478942871094,0.0000523360008142282
901,-0.0015106201171875,0.000054054282127166
902,-0.00152778625488281,0.0000640152774930592
903,-0.00160884857177734,0.0000625911209988037
904,-0.00151205062866211,0.0000486911215094352
905,-0.00152158737182617,0.0000521237762242067
906,-0.00160503387451172,0.0000550452686337028
907,-0.00156784057617187,0.0000464653283123149
908,-0.00163459777832031,0.0000503712501757801
909,-0.00156927108764648,0.0000651471950725691
910,-0.00154018402099609,0.0000526791771840131
911,-0.00160551071166992,0.0000588985582695994
912,-0.00162887573242187,0.0000584159577602904
913,-0.00162410736083984,0.0000640986919933567
914,-0.00174665451049805,0.0000702619188552622
915,-0.00163555145263672,0.0000450188322378896
916,-0.0017242431640625,0.0000434144455519896
917,-0.00162935256958008,0.000041134633208887
918,-0.00176429748535156,0.0000459832740763893
919,-0.00173759460449219,0.0000499781303329929
920,-0.00176715850830078,0.0000492829138858956
921,-0.0017390251159668,0.0000697634110609737
922,-0.00182151794433594,0.0000623673108752283
923,-0.00183534622192383,0.0000549936110568349
924,-0.00204181671142578,0.0000474303188354805
925,-0.00207424163818359,0.0000386965913621635
926,-0.00196409225463867,0.0000629406986555395
927,-0.00212287902832031,0.000060629614965714
928,-0.00202035903930664,0.0000483772388767402
929,-0.00215816497802734,0.0000536754305203153
930,-0.00230312347412109,0.0000618566424109708
931,-0.00213241577148437,0.0000891468715328354
932,-0.00231456756591797,0.0000990674382773254
933,-0.00232219696044922,0.0000804202513320326
934,-0.00236415863037109,0.000111958277853111
935,-0.00246095657348633,0.0000735783066691763
936,-0.00258398056030273,0.0000676873663262291
937,-0.00267601013183594,0.0000664585107076948
938,-0.00254487991333008,0.0000717208105054052
939,-0.00270557403564453,0.0000763922296698165
940,-0.0029296875,0.0000845764496147957
941,-0.00302028656005859,0.000085965686173356
942,-0.00277090072631836,0.000109732652861957
943,-0.00300312042236328,0.0000782318171967485
944,-0.0030522346496582,0.0000723599405617967
945,-0.00303316116333008,0.0000785190245077156
946,-0.00325536727905273,0.0000940759955724752
947,-0.00337409973144531,0.0000859365869603638
948,-0.00338554382324219,0.0000902797694388842
949,-0.00343847274780273,0.0000803042476019852
950,-0.00365591049194336,0.000103961436545089
951,-0.00377655029296875,0.0000952075571854456
952,-0.00396919250488281,0.0000734793528623857
953,-0.00401735305786133,0.0000655993458918502
954,-0.00399875640869141,0.0000743560239125092
955,-0.00418663024902344,0.0000921591898429369
956,-0.00439882278442383,0.0000844984506146022
957,-0.00472259521484375,0.000097501248044738
958,-0.00464534759521484,0.000118253692488267
959,-0.00461435317993164,0.000130562855343049
960,-0.00471782684326172,0.000127963051740414
961,-0.00477218627929688,0.000138912739111704
962,-0.00506258010864258,0.0000927028340292378
963,-0.00475645065307617,0.000108555621000812
964,-0.00496292114257813,0.0000994042513548187
965,-0.00474023818969727,0.000107416500287629
966,-0.00490093231201172,0.000108452940166131
967,-0.00478410720825195,0.00012896836474897
968,-0.0046238899230957,0.000122790892031908
969,-0.00464677810668945,0.000125156810636238
970,-0.00432968139648438,0.000107138847441421
971,-0.0045628547668457,0.00016786835270453
972,-0.00443840026855469,0.000131537930676015
973,-0.0046534538269043,0.000131281851748812
974,-0.00438642501831055,0.000156312428050778
975,-0.00418376922607422,0.000182284062480986
976,-0.00385665893554687,0.0001508494528938
977,-0.00392293930053711,0.000112763670681152
978,-0.00409603118896484,0.000130639458353014
979,-0.00402736663818359,0.000148212771149863
980,-0.00394868850708008,0.000174191165793643
981,-0.00365686416625977,0.000134366585596622
982,-0.00333023071289062,0.0000979711811460932
983,-0.00360631942749023,0.000101527130376779
984,-0.00359582901000977,0.000106807265878019
985,-0.00336694717407227,0.000148678407062327
986,-0.00307130813598633,0.000163626724683933
987,-0.00302457809448242,0.000231948808120835
988,-0.00314998626708984,0.000153164964458361
989,-0.00288724899291992,0.000156198927236267
990,-0.00307798385620117,0.000209278825633596
991,-0.00304174423217773,0.000157558426892668
992,-0.00256538391113281,0.000184880041870479
993,-0.00252866744995117,0.000206632858639259
994,-0.00262069702148437,0.000180554501717207
995,-0.00271749496459961,0.000158169120758977
996,-0.00237941741943359,0.000155211776810142
997,-0.00227785110473633,0.000145296906428021
998,-0.00204133987426758,0.000177526928677977
999,-0.00230073928833008,0.000192774359068943
1000,-0.00175809860229492,0.000211625466578818
1001,-0.00175666809082031,0.000193865827458231
1002,-0.00166654586791992,0.000164419647595713
1003,-0.00232505798339844,0.000187056355589988
1004,-0.00192594528198242,0.000210751235478663
1005,-0.00194358825683594,0.00023473177889414
1006,-0.00206565856933594,0.00020903531627928
1007,-0.0014796257019043,0.000238723559819913
1008,-0.00132846832275391,0.000172219428983831
1009,-0.00157737731933594,0.000292534058665343
1010,-0.00183629989624023,0.000271467376852647
1011,-0.00194501876831055,0.000174008326270395
1012,-0.00200796127319336,0.000350184222416498
1013,-0.00162935256958008,0.000243924462467349
1014,-0.00165176391601562,0.000219506743200582
1015,-0.00167560577392578,0.000260770205088998
1016,-0.00154876708984375,0.000281287043916775
1017,-0.00185823440551758,0.000361058627612365
1018,-0.00152873992919922,0.000276341841094797
1019,-0.00117397308349609,0.000226063060433634
1020,-0.00188684463500977,0.000288917676386751
1021,-0.00232172012329102,0.000294801078224985
1022,-0.00179243087768555,0.000284265343056661
1023,-0.00160646438598633,0.000272063075056296
1024,-0.00130939483642578,0.000378367205260542
1025,-0.0019073486328125,0.00034081817048337
1026,-0.0018620491027832,0.000237860981264037
1027,-0.00160121917724609,0.000278133028160983
1028,-0.00164079666137695,0.000352379756290929
1029,-0.00192880630493164,0.000375781566040794
1030,-0.00144100189208984,0.000322556283311945
1031,-0.00182151794433594,0.000372534046139322
1032,-0.00219058990478516,0.000307521152264928
1033,-0.00197744369506836,0.000271138849547071
1034,-0.00158882141113281,0.000299417286981165
1035,-0.00193977355957031,0.000365435255620914
1036,-0.00264501571655273,0.000380093954683873
1037,-0.00246429443359375,0.000323052159935574
1038,-0.00157356262207031,0.000427297180391258
1039,-0.00198125839233398,0.000474312775951219
1040,-0.0019679069519043,0.000349674802790182
1041,-0.00248050689697266,0.000457016016429128
1042,-0.00296211242675781,0.000437560908514029
1043,-0.00316953659057617,0.000361330573614948
1044,-0.00214099884033203,0.00032342919258953
1045,-0.0024266242980957,0.000383799116595054
1046,-0.00220346450805664,0.000598615830477723
1047,-0.00337743759155273,0.000476157657940697
1048,-0.00293302536010742,0.000515943974935763
1049,-0.00225591659545898,0.000614994982662853
1050,-0.00309896469116211,0.000448628509485902
1051,-0.00248050689697266,0.000485216896325496
1052,-0.00264406204223633,0.000440816288267569
1053,-0.00327157974243164,0.000429962243762371
1054,-0.00362491607666016,0.00044656404500311
1055,-0.0032649040222168,0.000628117445762719
1056,-0.00309371948242187,0.00081311236399751
1057,-0.00265932083129883,0.000782412915171354
1058,-0.0039820671081543,0.000597520911875041
1059,-0.00383424758911133,0.000638617237623766
1060,-0.00247955322265625,0.000614699138456996
1061,-0.00258684158325195,0.000561603250221741
1062,-0.00376272201538086,0.000822047346188101
1063,-0.00419139862060547,0.000674985861988929
1064,-0.00343847274780273,0.000819973591776871
1065,-0.00182008743286133,0.000745965976658955
1066,-0.00271224975585937,0.000857450269693821
1067,-0.00223064422607422,0.000960198023867404
1068,-0.00362920761108398,0.000820026830477413
1069,-0.00391578674316406,0.00103807438389117
1070,-0.00217914581298828,0.00108921464585191
1071,-0.00456142425537109,0.000624621004440087
1072,-0.00210094451904297,0.00102716700770493
1073,-0.00278234481811523,0.00131014721030777
1074,-0.00221729278564453,0.00120193840782768
1075,-0.00341129302978516,0.00125442652440654
1076,-0.00143098831176758,0.00131493671613297
1077,-0.00223350524902344,0.00113265036376316
1078,-0.00333309173583984,0.00114265307156196
1079,-0.00331211090087891,0.000918906650885287
1080,-0.00279331207275391,0.00120067861555199
1081,-0.00329208374023437,0.00106697021146122
1082,-0.00234317779541016,0.000701613988133927
1083,-0.00395536422729492,0.000913840965992178
1084,-0.00405025482177734,0.00116001926923545
1085,-0.00496435165405273,0.00124120190194696
1086,-0.00176143646240234,0.00105022710241609
1087,-0.00354099273681641,0.00167687080104813
1088,-0.00610113143920898,0.001608662857435
1089,-0.00490999221801758,0.00199744484520918
1090,-0.00380182266235352,0.001664712208188
1091,-0.00374889373779297,0.00185675074810348
1092,-0.000506401062011719,0.0021320847747447
1093,-0.00531196594238281,0.0021131081571926
1094,-0.00924062728881836,0.00247653484028193
1095,-0.00905370712280273,0.00241349477789626
1096,-0.00678873062133789,0.00230584487303022
1097,-0.00146770477294922,0.0024462651539013
1098,-0.00438165664672852,0.00313849218740793
1099,-0.00758790969848633,0.00217372148223079
1100,-0.00719881057739258,0.00236191071421989
