Wavelength (nm),Absorbance (AU),Std.Dev.
190,2.96357727050781,0.0277247452472234
191,3.01903104782104,0.0148407079691525
192,2.9462685585022,0.00760151154833318
193,3.01711416244507,0.0103637623421832
194,2.93326234817505,0.00700177265610351
195,2.91413450241089,0.00842904126056253
196,2.90036916732788,0.00887993354409499
197,2.86812019348145,0.00737477970602476
198,2.81849479675293,0.00491475149882749
199,2.78466272354126,0.00472894466680113
200,2.7258505821228,0.00546153819173541
201,2.69447374343872,0.00387855487088639
202,2.64260673522949,0.00393700414139043
203,2.58239364624023,0.00318642098732386
204,2.52197170257568,0.00294901512403028
205,2.46306848526001,0.00329321292682348
206,2.40578985214233,0.00322744129858109
207,2.34219264984131,0.00327036824331514
208,2.29179620742798,0.00282374188313493
209,2.24081468582153,0.00318517856117576
210,2.18176460266113,0.00208023804958731
211,2.1310772895813,0.00159846285019626
212,2.0848822593689,0.00109409348169407
213,2.03615570068359,0.00083594980297661
214,1.99095344543457,0.00125398562973318
215,1.95019292831421,0.00147087128628978
216,1.91154146194458,0.0013520828400321
217,1.87399482727051,0.000933564838057512
218,1.83745145797729,0.000506551005548101
219,1.80103015899658,0.000575020536867121
220,1.76647043228149,0.000402400840833679
221,1.73313474655151,0.000385916540724443
222,1.69861221313477,0.000289452331010345
223,1.66508340835571,0.00024302795298717
224,1.6320013999939,0.000350080319431564
225,1.5991005897522,0.000415083938865217
226,1.56702995300293,0.000369730566298322
227,1.5359091758728,0.000409187410140621
228,1.50498867034912,0.000287889619790578
229,1.47652864456177,0.00025963772317483
230,1.44522714614868,0.000349445842211408
231,1.41697216033936,0.000394493925694388
232,1.38886451721191,0.000284591500544698
233,1.36055612564087,0.000248175303372561
234,1.33445882797241,0.000225450706149442
235,1.30900764465332,0.000196021254359069
236,1.28417301177979,0.000215871928535049
237,1.26121377944946,0.000217822220175284
238,1.23863124847412,0.000353657618874262
239,1.21656465530396,0.000235319983027678
240,1.19582319259644,0.000193189090224976
241,1.17625284194946,0.00023753574953802
242,1.15796804428101,0.000210024981933072
243,1.14152526855469,0.000242248294394814
244,1.12562847137451,0.000188422491169202
245,1.11149549484253,0.000101388184059034
246,1.09898042678833,0.000101222095230354
247,1.08749198913574,0.0000974289289810991
248,1.0774073600769,0.000130667302858761
249,1.06854677200317,0.000154615873169935
250,1.05993366241455,0.000141488119221099
251,1.05234861373901,0.00011792444186897
252,1.04590511322021,0.000152199967326398
253,1.03955793380737,0.000133929289210261
254,1.03367376327515,0.0000984157702125569
255,1.02811717987061,0.000141159907272366
256,1.02283620834351,0.000102529968840541
257,1.01697111129761,0.000139998610075981
258,1.01163053512573,0.000176890519021783
259,1.00583839416504,0.000152775529884856
260,1.0002293586731,0.0000589911357973269
261,0.994681835174561,0.0000809289733108131
262,0.988317966461182,0.000120535153019655
263,0.981926441192627,0.000128371081250505
264,0.975508213043213,0.000107602612890767
265,0.968667507171631,0.000156402587890625
266,0.961116790771484,0.000141201780627109
267,0.953580379486084,0.000157950464273877
268,0.946062088012695,0.000193753202064842
269,0.937343120574951,0.000129832872581097
270,0.929058074951172,0.000151670199749136
271,0.920046806335449,0.000107138847441421
272,0.910861968994141,0.000130056843201628
273,0.901607513427734,0.000119155871820809
274,0.892209053039551,0.000125465271283674
275,0.882673740386963,0.000135670017964473
276,0.87279224395752,0.000170587785254181
277,0.863051891326904,0.0001154438418125
278,0.852756977081299,0.0000984296312633351
279,0.842610836029053,0.000114313690672086
280,0.832682609558106,0.0001382071189434
281,0.822052478790283,0.000104164637915902
282,0.811428546905518,0.000120399257905553
283,0.800661087036133,0.0000911719629428569
284,0.789315223693848,0.000120763187863392
285,0.777779579162598,0.000121945451417174
286,0.766416072845459,0.0000775296748607737
287,0.75469970703125,0.0000740603481811765
288,0.743144512176514,0.0000754684251603114
289,0.731629371643066,0.0000604154749372229
290,0.719930171966553,0.0000889834865221357
291,0.708704471588135,0.0000665491130690956
292,0.697803974151611,0.0000440913248274492
293,0.686628341674805,0.0000640632097365589
294,0.676023483276367,0.0000715525894007705
295,0.665373802185059,0.0000490447358287712
296,0.65516996383667,0.0000593389310479544
297,0.645169258117676,0.0000799964505171934
298,0.635133743286133,0.0000756805317397745
299,0.624963760375977,0.0000803000003853961
300,0.615152835845947,0.0000715875357224636
301,0.605647563934326,0.0000637857707359658
302,0.596271514892578,0.0000866952375592309
303,0.586682796478272,0.0000703395420630866
304,0.577639102935791,0.0000542872350949784
305,0.568487644195557,0.0000609120976151919
306,0.559489250183106,0.0000732298309115119
307,0.55099630355835,0.0000518865879017458
308,0.542243003845215,0.0000830449935268146
309,0.53392219543457,0.000105416606915668
310,0.525751113891602,0.0000828407645560302
311,0.517608642578125,0.0000746413904572089
312,0.509908676147461,0.0000639032957754172
313,0.502277374267578,0.0000852538967392011
314,0.494750499725342,0.0000650528926900982
315,0.487595558166504,0.0000614602218523365
316,0.480198860168457,0.0000433528638179043
317,0.473279476165772,0.0000365745290612387
318,0.466224193572998,0.0000623217227290877
319,0.459327697753906,0.0000808347987248537
320,0.452422618865967,0.0000635500686327142
321,0.445808410644531,0.0000705283907208408
322,0.439165592193604,0.0000885711383586233
323,0.432547569274902,0.0000724666986141696
324,0.4261155128479,0.0000589120682200642
325,0.419546127319336,0.0000605714588478104
326,0.41329288482666,0.0000532832187318101
327,0.406874179840088,0.0000531090429576103
328,0.400647640228272,0.0000384985104046469
329,0.394454002380371,0.0000615637214271785
330,0.388151168823242,0.0000763148040867756
331,0.382099151611328,0.0000842909995803236
332,0.375994682312012,0.0000703993182043415
333,0.369787693023682,0.0000545733825943855
334,0.363659381866455,0.0000571329719572073
335,0.357706069946289,0.0000606014818775835
336,0.351831912994385,0.0000574306759143537
337,0.345872402191162,0.0000706845750089055
338,0.340145111083984,0.0000602222866566629
339,0.334357738494873,0.0000426149450986986
340,0.32883882522583,0.0000600483591117734
341,0.32321310043335,0.00006982530861034
342,0.317573547363281,0.0000720324043303745
343,0.312255859375,0.0000872468676027313
344,0.306769371032715,0.0000601108040480754
345,0.301448345184326,0.0000734313741743694
346,0.296431541442871,0.0000654397112103792
347,0.291213989257812,0.0000686281160540715
348,0.286111831665039,0.0000727891570577527
349,0.281251907348633,0.000054988442630082
350,0.27642297744751,0.0000800958691358724
351,0.271666049957275,0.0000825933714691915
352,0.266961097717285,0.0000712085692600232
353,0.262492179870605,0.0000931750056387092
354,0.25801944732666,0.000082979256525034
355,0.253640174865723,0.0000460968619740512
356,0.24941873550415,0.0000555653411655471
357,0.244961738586426,0.0000950713329359558
358,0.240378379821777,0.0000639424227865992
359,0.236077308654785,0.0000516846169178491
360,0.231498718261719,0.0000619154275441339
361,0.227278232574463,0.0000537875696266311
362,0.223050117492676,0.000062047490461781
363,0.219032287597656,0.0000575335203781463
364,0.214956760406494,0.0000719881991072297
365,0.211095809936523,0.0000866480164985646
366,0.207179069519043,0.0000798257305277977
367,0.203272342681885,0.0000985635209242625
368,0.199538230895996,0.000085375159816446
369,0.196036338806152,0.0000736817565517955
370,0.192339897155762,0.0000859418784592119
371,0.189061164855957,0.000100001744951497
372,0.185489654541016,0.0000756594981014202
373,0.182143688201904,0.0000874837008557548
374,0.178979873657227,0.0000721018149239952
375,0.175471305847168,0.000063320671133256
376,0.172249317169189,0.000086479910572796
377,0.169225692749023,0.000100001744951497
378,0.166198253631592,0.0000722168262501296
379,0.162654399871826,0.0000638819436684196
380,0.159877777099609,0.0000603081197882171
381,0.157003402709961,0.0000993607819400851
382,0.154379844665527,0.0000687489388386357
383,0.151142120361328,0.0000719834612232269
384,0.14844799041748,0.0000890805325139494
385,0.145444393157959,0.0000852898938823078
386,0.142565727233887,0.0000823355702800434
387,0.140171051025391,0.0000918948219757873
388,0.137321472167969,0.0000915030503563765
389,0.13409948348999,0.0000836071103683849
390,0.132249355316162,0.0000635536463987203
391,0.129670143127441,0.0000674956217926807
392,0.127258777618408,0.0000594002078744517
393,0.12443733215332,0.0000615784928799559
394,0.121936798095703,0.0000583448796545023
395,0.119935512542725,0.0000844122991100231
396,0.117688655853271,0.0000687952255200234
397,0.115936279296875,0.0000731350691606058
398,0.113405227661133,0.0000827528873030982
399,0.110641002655029,0.0000797886930506764
400,0.109053134918213,0.0000643712502696465
401,0.106909275054932,0.0000800589566324048
402,0.105127334594727,0.0000641766839045046
403,0.1033034324646,0.0000703540868800365
404,0.101531505584717,0.0000588956628770254
405,0.0996065139770508,0.0000809682974012342
406,0.0971932411193848,0.0000559903076449269
407,0.0958232879638672,0.0000711318943909006
408,0.0947813987731934,0.000062370956487441
409,0.0923175811767578,0.0000745072364669802
410,0.090754508972168,0.000099310425162848
411,0.0893287658691406,0.0000817786152720367
412,0.0880613327026367,0.0000626782447449525
413,0.0860466957092285,0.0000593360571440396
414,0.0843019485473633,0.0000630435710183655
415,0.0831451416015625,0.0000573980040622905
416,0.0815587043762207,0.0000639637547047194
417,0.0801329612731934,0.0000685734276658348
418,0.0790200233459473,0.0000640596604299418
419,0.0775871276855469,0.0000509781072959601
420,0.0764994621276856,0.0000674248416150308
421,0.075441837310791,0.0000518909698448244
422,0.0730161666870117,0.0000536203331393947
423,0.0721893310546875,0.0000680324814873192
424,0.0708189010620117,0.0000652343905436046
425,0.0697822570800781,0.000077620536276779
426,0.0688652992248535,0.000054026933639644
427,0.0684313774108887,0.0000566212753631493
428,0.0662083625793457,0.0000575769761967605
429,0.0663418769836426,0.0000613584005494687
430,0.0643558502197266,0.0000607682142478577
431,0.0627331733703613,0.0000610128004139836
432,0.06219482421875,0.0000724258979404147
433,0.0623035430908203,0.0000759579292396259
434,0.0602126121520996,0.0000617702003203234
435,0.0591115951538086,0.0000692104126599645
436,0.0589680671691895,0.0000614657708905106
437,0.057828426361084,0.0000438405027174831
438,0.057159423828125,0.0000448480493775463
439,0.0560436248779297,0.0000538160960211549
440,0.0554986000061035,0.0000500962767349498
441,0.055412769317627,0.0000502741064189804
442,0.0529718399047852,0.0000514089283735268
443,0.0531539916992188,0.0000569615866051405
444,0.0518531799316406,0.0000644524402202729
445,0.0513930320739746,0.0000620951108233678
446,0.0506386756896973,0.0000707167350610762
447,0.0496511459350586,0.0000543531614998973
448,0.0492897033691406,0.0000595693483748547
449,0.0486302375793457,0.0000474411037642974
450,0.047548770904541,0.0000400777305588759
451,0.0470576286315918,0.0000505885797779627
452,0.0464630126953125,0.0000516725175574974
453,0.0457925796508789,0.0000652709779058031
454,0.0453152656555176,0.0000542600040220851
455,0.0446844100952148,0.0000495738678239672
456,0.0440096855163574,0.0000708323903474276
457,0.0436878204345703,0.0000830627883450191
458,0.0430002212524414,0.0000648901617776779
459,0.0420451164245606,0.000055663462659674
460,0.0413103103637695,0.0000707922536754148
461,0.0410070419311523,0.0000566433573702994
462,0.0405244827270508,0.0000479547427626595
463,0.0405583381652832,0.0000437561428152635
464,0.0396313667297363,0.0000463894185265613
465,0.0389285087585449,0.0000502311225874313
466,0.0377697944641113,0.0000571985997726576
467,0.037879467010498,0.0000619007364945632
468,0.0371427536010742,0.0000586315836305504
469,0.0367116928100586,0.0000656045448308647
470,0.0364217758178711,0.000061654141029293
471,0.0360870361328125,0.0000883372205879929
472,0.0357451438903809,0.0000734685217038351
473,0.0350775718688965,0.0000596484976620174
474,0.0345282554626465,0.0000655178419874524
475,0.0343532562255859,0.000063243421197164
476,0.0334248542785645,0.0000495279809554085
477,0.0334062576293945,0.0000559100464138026
478,0.0329718589782715,0.000060650237603167
479,0.0325207710266113,0.0000983857312366447
480,0.031954288482666,0.0000749878547992045
481,0.0315685272216797,0.000077825317001968
482,0.0309271812438965,0.0000709847027288096
483,0.0309872627258301,0.0000798342751977447
484,0.0298900604248047,0.0000711702421511188
485,0.0382943153381348,0.000070898165300828
486,0.0246353149414062,0.0000367017505950951
487,0.0283622741699219,0.000050629014706088
488,0.0280489921569824,0.0000762059777477829
489,0.028510570526123,0.0000726906929642665
490,0.0279717445373535,0.000107813714507983
491,0.0276670455932617,0.0000756174132726477
492,0.0272760391235352,0.0000505919505896389
493,0.0271468162536621,0.0000446689790442101
494,0.0266180038452148,0.0000588927673421029
495,0.0265893936157227,0.0000462704066112831
496,0.0259008407592773,0.0000569895216687342
497,0.025444507598877,0.0000789104269136111
498,0.0254850387573242,0.0000870067764614169
499,0.0251846313476562,0.0000833183394275073
500,0.0244779586791992,0.000107365686313743
501,0.0245628356933594,0.0000673860495375474
502,0.0241193771362305,0.0000672052876565852
503,0.0237960815429687,0.0000690492476452071
504,0.0233616828918457,0.0000541246933886059
505,0.0234012603759766,0.0000538245453827521
506,0.0226292610168457,0.0000558612237762736
507,0.022491455078125,0.0000565479414708961
508,0.0224008560180664,0.0000844122991100231
509,0.0220837593078613,0.000076655188307638
510,0.0218100547790527,0.0000746764137055383
511,0.021538257598877,0.0000524499199159319
512,0.0213103294372559,0.0000563031418575335
513,0.0209226608276367,0.0000743529659443841
514,0.0206570625305176,0.0000801128999396234
515,0.0204710960388184,0.0000740281049705636
516,0.0202755928039551,0.0000558449400785727
517,0.019871711730957,0.0000504422949026657
518,0.0198140144348145,0.0000489101056974757
519,0.0193209648132324,0.0000537886264295474
520,0.0191025733947754,0.000060987640303082
521,0.0189809799194336,0.000070119386461837
522,0.0187549591064453,0.0000638303132552808
523,0.0186367034912109,0.0000528870236302339
524,0.018343448638916,0.0000503757639309015
525,0.0180630683898926,0.0000600748588302353
526,0.0177555084228516,0.0000812905968080359
527,0.0176033973693848,0.0000700058011917828
528,0.0175566673278809,0.000069353173902325
529,0.0170984268188477,0.0000482537057994142
530,0.0170230865478516,0.0000645300045875355
531,0.0168595314025879,0.0000716288139394792
532,0.0167045593261719,0.0000758021117919938
533,0.0165519714355469,0.0000637839883881978
534,0.0161728858947754,0.0000505503615364793
535,0.015899658203125,0.0000411802102334906
536,0.0156731605529785,0.0000514210897563378
537,0.0158257484436035,0.0000468672955441142
538,0.0155172348022461,0.0000517977737960826
539,0.015294075012207,0.0000547314762008742
540,0.0151276588439941,0.0000665525296110836
541,0.0148921012878418,0.0000672171280607292
542,0.0148792266845703,0.000057698281334907
543,0.0146017074584961,0.0000455922157928525
544,0.0144166946411133,0.0000537822853005623
545,0.0141911506652832,0.0000515998618160964
546,0.014101505279541,0.0000435817163247966
547,0.0142669677734375,0.0000525170703974089
548,0.0136928558349609,0.0000405353656156018
549,0.013524055480957,0.0000499155360134191
550,0.0133132934570312,0.0000584733413144623
551,0.013310432434082,0.0000551474078800713
552,0.0131659507751465,0.0000556409917671769
553,0.0130047798156738,0.0000458954216595305
554,0.0127973556518555,0.0000488624321845695
555,0.012967586517334,0.0000481121367520694
556,0.0124773979187012,0.0000371825985312024
557,0.0124168395996094,0.0000374089311386229
558,0.0122394561767578,0.0000543918429365067
559,0.012209415435791,0.0000612953718727929
560,0.0121769905090332,0.0000410315534658318
561,0.0118756294250488,0.0000468697211992432
562,0.0118069648742676,0.000046446974418205
563,0.011655330657959,0.0000504411679901424
564,0.0115952491760254,0.0000415149666970804
565,0.0112442970275879,0.0000385309799227399
566,0.0113201141357422,0.0000521575722195785
567,0.0113458633422852,0.0000485379474030892
568,0.0111746788024902,0.0000372719239312822
569,0.0113077163696289,0.0000297359681545649
570,0.0109953880310059,0.0000365255395670367
571,0.0109596252441406,0.0000401089216656311
572,0.00992918014526367,0.0000460980950874594
573,0.0111513137817383,0.000037459041559803
574,0.0104455947875977,0.0000450352438091949
575,0.00975608825683594,0.0000350596932309185
576,0.0107574462890625,0.0000331007084296103
577,0.010465145111084,0.0000359530157969366
578,0.00940084457397461,0.0000321387890891947
579,0.00963211059570313,0.0000317374444814563
580,0.0103244781494141,0.0000297053667320529
581,0.0105934143066406,0.0000274890521594716
582,0.00861215591430664,0.0000270822937278401
583,0.008636474609375,0.0000304579151585985
584,0.0102615356445312,0.0000456607371488538
585,0.00947046279907227,0.0000263692457460359
586,0.00831460952758789,0.0000334950527400058
587,0.00980091094970703,0.0000380858288933049
588,0.00823831558227539,0.0000356903932907981
589,0.00846672058105469,0.0000424826852827202
590,0.00889062881469727,0.0000378485270348956
591,0.00842761993408203,0.0000464139191190197
592,0.00973320007324219,0.0000328706511299402
593,0.00842761993408203,0.0000261457253718476
594,0.00854682922363281,0.0000258703384915457
595,0.00831460952758789,0.0000438210494620544
596,0.00783586502075195,0.0000385884723781303
597,0.00864553451538086,0.0000376452291216139
598,0.00813865661621094,0.0000360035737629178
599,0.00844335556030273,0.0000364351643892999
600,0.00792980194091797,0.0000428702859636794
601,0.00763225555419922,0.0000378064513972816
602,0.00782680511474609,0.0000420624703511652
603,0.00774717330932617,0.0000392985858146231
604,0.0071415901184082,0.0000304798362225196
605,0.00797033309936523,0.0000393903282700794
606,0.00706815719604492,0.0000340805160991275
607,0.00745153427124023,0.0000273023107672447
608,0.00692939758300781,0.0000302927669977415
609,0.00719022750854492,0.0000416482523827538
610,0.00737857818603516,0.0000337713836853519
611,0.00670480728149414,0.0000336997724832095
612,0.00708341598510742,0.0000309824920608796
613,0.00717449188232422,0.0000465899430415923
614,0.00671911239624023,0.000059340846906573
615,0.00702047348022461,0.0000424632793091124
616,0.006378173828125,0.0000323037379175648
617,0.00658273696899414,0.0000353872931644058
618,0.00632095336914063,0.0000347649934822157
619,0.00638675689697266,0.0000404658914040368
620,0.00639247894287109,0.0000359316653188456
621,0.00603771209716797,0.0000359988369699453
622,0.00660276412963867,0.0000395846647619635
623,0.00617408752441406,0.0000273137593684699
624,0.00622177124023438,0.0000344306476898439
625,0.00584983825683594,0.0000311216165063659
626,0.00579404830932617,0.0000305171124601599
627,0.00595951080322266,0.0000280848585560364
628,0.00561046600341797,0.0000280610666185258
629,0.00597667694091797,0.0000316118222121567
630,0.00550556182861328,0.0000287400716677325
631,0.00556373596191406,0.0000369948509378221
632,0.00546979904174805,0.0000362701977206588
633,0.00547122955322266,0.0000277186592574769
634,0.00540781021118164,0.0000318349071754473
635,0.00545406341552734,0.000046966644678032
636,0.0055851936340332,0.000045661982039925
637,0.00543546676635742,0.0000441634621372922
638,0.00531101226806641,0.0000403505396051915
639,0.00498676300048828,0.0000392681986273516
640,0.00488758087158203,0.0000540595398655211
641,0.00484609603881836,0.0000554024451775002
642,0.0047612190246582,0.0000414306736529811
643,0.00480413436889648,0.0000505447387695313
644,0.00478744506835938,0.0000448645234217551
645,0.00476646423339844,0.0000404651890358174
646,0.00466156005859375,0.0000517208980160788
647,0.00472879409790039,0.000047023494060793
648,0.00471115112304688,0.0000339409594241697
649,0.00452804565429688,0.0000357023364016245
650,0.00442266464233398,0.0000356776495659408
651,0.00444364547729492,0.0000476181055729607
652,0.00439691543579102,0.0000317069819751463
653,0.00448942184448242,0.0000323520922273051
654,0.00376510620117187,0.000047210490926618
655,0.0108828544616699,0.0000248699264298158
656,0.00578403472900391,0.0000307245611363521
657,-0.00485086441040039,0.0000423332312306147
658,0.0045018196105957,0.0000342219952485127
659,0.00364589691162109,0.0000300922595389928
660,0.00394535064697266,0.0000375983907055799
661,0.00394201278686523,0.0000457614636001971
662,0.00392961502075195,0.0000424291300325824
663,0.00388288497924805,0.0000369187147317516
664,0.00388193130493164,0.0000478989986540422
665,0.0037693977355957,0.0000476562897964657
666,0.00362014770507812,0.0000452581015424902
667,0.0035557746887207,0.0000447782844344906
668,0.00354480743408203,0.0000458148456818769
669,0.00350332260131836,0.0000301219961466072
670,0.00342226028442383,0.0000317051891515337
671,0.00352191925048828,0.0000429861491286238
672,0.00341892242431641,0.0000412346983130044
673,0.00311040878295898,0.0000249406802752816
674,0.00335121154785156,0.0000319400820020068
675,0.00333833694458008,0.0000318090058901938
676,0.00326395034790039,0.0000278949737548828
677,0.00333309173583984,0.0000331873181177241
678,0.00329494476318359,0.0000291514855876863
679,0.00323200225830078,0.0000311918572262312
680,0.00311613082885742,0.0000301139748753947
681,0.00311374664306641,0.0000463906438635011
682,0.00297641754150391,0.0000372062868278636
683,0.00304269790649414,0.0000293835785614485
684,0.00311183929443359,0.000034437250873045
685,0.00303030014038086,0.0000415546553126557
686,0.00287342071533203,0.0000461572457898333
687,0.00286960601806641,0.0000386296962443912
688,0.00271940231323242,0.0000396162440767283
689,0.00281000137329102,0.0000397315817100641
690,0.00268363952636719,0.0000399114410506113
691,0.00276851654052734,0.0000326955246952294
692,0.00262022018432617,0.0000437652355407096
693,0.00264739990234375,0.0000553470129492906
694,0.0025181770324707,0.0000413076959822711
695,0.00258827209472656,0.0000305622489146463
696,0.00260782241821289,0.000034549311898475
697,0.00264501571655273,0.0000379280424107344
698,0.00246334075927734,0.0000390730155447923
699,0.00249814987182617,0.0000371527756728485
700,0.00234603881835937,0.0000272939814955664
701,0.00236845016479492,0.0000335476206313523
702,0.00242233276367187,0.0000328169988532905
703,0.00231695175170898,0.0000422936012265674
704,0.00223064422607422,0.0000368994635729699
705,0.00223445892333984,0.0000359506441477506
706,0.00230693817138672,0.0000397373040421011
707,0.00222253799438477,0.0000390984662541091
708,0.00199317932128906,0.0000330981323987546
709,0.00203800201416016,0.0000428384515885241
710,0.00208330154418945,0.0000376701354980469
711,0.00203657150268555,0.000028709893681293
712,0.00193405151367187,0.0000283211769147299
713,0.00195932388305664,0.0000395731751267858
714,0.00195217132568359,0.0000475834746531157
715,0.00190877914428711,0.000039287012514666
716,0.00172233581542969,0.0000487156313459934
717,0.00185632705688477,0.0000308445830166878
718,0.00190258026123047,0.0000403385635380028
719,0.00175333023071289,0.00003867455081167
720,0.00169467926025391,0.0000534663963112349
721,0.00173473358154297,0.0000507490061158393
722,0.00155973434448242,0.0000402341506971141
723,0.00163793563842773,0.0000389827136026321
724,0.00157642364501953,0.0000288491406674535
725,0.00150156021118164,0.0000356975596367818
726,0.00143527984619141,0.000033968581946492
727,0.00144100189208984,0.0000461350731637449
728,0.00148725509643555,0.0000545285755707147
729,0.00145959854125977,0.0000513436499782479
730,0.00144624710083008,0.0000382741655358008
731,0.00136137008666992,0.0000482136367731566
732,0.00118303298950195,0.0000559771080110716
733,0.00123357772827148,0.0000489182404344463
734,0.00129127502441406,0.0000440022787277755
735,0.0011601448059082,0.000038440144033116
736,0.00118780136108398,0.0000437236533597857
737,0.00107717514038086,0.0000289877187669174
738,0.000927925109863281,0.0000331230256382544
739,0.00110149383544922,0.0000552503871449161
740,0.000842571258544922,0.0000533258743194219
741,0.000909328460693359,0.000055238039769804
742,0.000898361206054688,0.0000484429943774082
743,0.000813484191894531,0.0000431926036146436
744,0.000716686248779297,0.0000593590444793887
745,0.000693798065185547,0.0000448657904053738
746,0.000642776489257813,0.0000393065404816649
747,0.000771045684814453,0.0000339953459882244
748,0.000542640686035156,0.0000338033490343777
749,0.000627040863037109,0.000038152932655139
750,0.000617504119873047,0.000040380112308193
751,0.000497341156005859,0.000053275750492676
752,0.000306606292724609,0.000049498131679272
753,0.000397682189941406,0.0000476204929839358
754,0.000507831573486328,0.0000348931109042981
755,0.000515937805175781,0.0000273402808694356
756,0.000432491302490234,0.0000311161365445028
757,0.000481128692626953,0.0000474985820271034
758,0.000280857086181641,0.0000495474880671117
759,0.000253677368164062,0.0000438573552259142
760,0.000278472900390625,0.0000424652872348731
761,0.000108242034912109,0.0000449708256120546
762,-0.0000224113464355469,0.00004319786747471
763,0.0000319480895996094,0.000036613362956637
764,0.000159740447998047,0.000036707945244803
765,0.000194072723388672,0.0000288447069991298
766,-0.000188827514648437,0.0000317902366132482
767,-0.0000939369201660156,0.0000335552446093734
768,0.000126838684082031,0.0000305771246755245
769,0.0000538825988769531,0.0000367025249834862
770,-0.0000319480895996094,0.0000415943060580117
771,-0.0000500679016113281,0.0000392493757217457
772,-0.000209808349609375,0.0000321723765680506
773,-0.000293731689453125,0.0000449328894140826
774,-0.000374794006347656,0.0000523685744159467
775,-0.000290393829345703,0.0000379212975825026
776,-0.000309467315673828,0.0000361139225554685
777,-0.000249862670898437,0.0000529632800527229
778,-0.000280857086181641,0.000042608942195217
779,-0.000176429748535156,0.0000456719399469325
780,-0.000327110290527344,0.0000417994756608819
781,-0.000306129455566406,0.0000528440138043663
782,-0.000399112701416016,0.0000520124215012489
783,-0.000413417816162109,0.0000536775485209285
784,-0.000466823577880859,0.0000446931509156469
785,-0.000545978546142578,0.0000438015875670048
786,-0.000551223754882813,0.0000479262857868991
787,-0.000512123107910156,0.0000419013445888527
788,-0.0006103515625,0.0000358817981321631
789,-0.000575065612792969,0.0000473403488792195
790,-0.000583171844482422,0.0000397265739933797
791,-0.000584125518798828,0.0000474902041132844
792,-0.000721454620361328,0.0000482831471045484
793,-0.000683784484863281,0.0000368347059821118
794,-0.000741481781005859,0.0000350613145258964
795,-0.000837326049804688,0.0000368802023652449
796,-0.00110101699829102,0.0000553531748270619
797,-0.000937461853027344,0.000051641706393899
798,-0.000958919525146484,0.0000542075981260064
799,-0.00101947784423828,0.0000495566652274177
800,-0.0010380744934082,0.0000405662048510875
801,-0.00101900100708008,0.0000354017471185123
802,-0.0010676383972168,0.0000478978119043262
803,-0.00105381011962891,0.0000584859775789717
804,-0.00120019912719727,0.0000599156847139
805,-0.00107622146606445,0.0000525679176351824
806,-0.00114107131958008,0.0000553829475716958
807,-0.00118684768676758,0.0000489182404344463
808,-0.00120782852172852,0.0000501801730636322
809,-0.00120019912719727,0.0000471683306277848
810,-0.0013275146484375,0.0000404876587753352
811,-0.00130081176757812,0.0000412898028388772
812,-0.00122642517089844,0.0000399747694304174
813,-0.00133085250854492,0.0000453810209815411
814,-0.00136661529541016,0.0000511450921314711
815,-0.00141668319702148,0.0000445568540982482
816,-0.0013575553894043,0.0000435986688639162
817,-0.00136804580688477,0.0000316558467126878
818,-0.00150108337402344,0.0000311435267113724
819,-0.00143671035766602,0.0000401698161708733
820,-0.00137233734130859,0.0000439492818245106
821,-0.00149965286254883,0.0000421684221758865
822,-0.00146484375,0.000048987911340101
823,-0.00155305862426758,0.0000387120122810264
824,-0.00159120559692383,0.0000360185694976941
825,-0.00156927108764648,0.0000515767226163906
826,-0.00149679183959961,0.000039318108033558
827,-0.00158405303955078,0.0000306541768310294
828,-0.00160884857177734,0.0000304807686840486
829,-0.00157833099365234,0.0000460363989556782
830,-0.00165462493896484,0.0000354394602065205
831,-0.00165700912475586,0.0000405872181676229
832,-0.00168991088867187,0.0000420658487271677
833,-0.0014948844909668,0.0000539353205573186
834,-0.00150537490844727,0.0000424913816352898
835,-0.00153398513793945,0.0000445491989389961
836,-0.00161409378051758,0.0000489809487090569
837,-0.00170087814331055,0.0000378905559495691
838,-0.00172328948974609,0.000032127290574752
839,-0.00170469284057617,0.0000392971393385266
840,-0.00171327590942383,0.0000307680076980603
841,-0.00177812576293945,0.0000430990631166558
842,-0.00173807144165039,0.0000431432236926862
843,-0.00174665451049805,0.0000600066930529982
844,-0.00170660018920898,0.000046664308520751
845,-0.00180292129516602,0.0000336837444542873
846,-0.00174331665039062,0.0000388490619471476
847,-0.0017085075378418,0.0000426289485861565
848,-0.00177860260009766,0.000056433229440602
849,-0.00176429748535156,0.000056955598737513
850,-0.00182151794433594,0.0000479156100638199
851,-0.00181007385253906,0.0000314405320245929
852,-0.00168275833129883,0.0000340546535968024
853,-0.00177431106567383,0.000049664369836012
854,-0.00184392929077148,0.0000411000715119406
855,-0.00186061859130859,0.0000424137203825365
856,-0.00188541412353516,0.0000654066946379681
857,-0.00188112258911133,0.0000602704059956549
858,-0.00192499160766602,0.0000429073962163151
859,-0.00184822082519531,0.0000373184104979003
860,-0.00181102752685547,0.0000288624375859895
861,-0.00196695327758789,0.0000371435945914053
862,-0.00176143646240234,0.0000416898593795669
863,-0.00183773040771484,0.0000347731679029551
864,-0.00188589096069336,0.0000400841125325184
865,-0.00177240371704102,0.0000403385635380028
866,-0.00181150436401367,0.0000306893891614794
867,-0.00183725357055664,0.0000433069481941813
868,-0.00189208984375,0.000040258867370782
869,-0.00186443328857422,0.0000574356245736749
870,-0.00192594528198242,0.0000493059766949103
871,-0.00192928314208984,0.0000562243382325418
872,-0.0018773078918457,0.0000471020024854288
873,-0.00186300277709961,0.0000449531260370369
874,-0.00184535980224609,0.0000480825907362195
875,-0.00189828872680664,0.0000512372565294782
876,-0.00192546844482422,0.0000608392641518648
877,-0.00181436538696289,0.0000410647886141489
878,-0.00189065933227539,0.0000412725905777894
879,-0.00183439254760742,0.0000501688439204937
880,-0.00192642211914062,0.0000616024889363047
881,-0.00188827514648437,0.0000530683553922662
882,-0.00198078155517578,0.0000484418209547481
883,-0.00196361541748047,0.0000534259808957834
884,-0.00196218490600586,0.0000450036777831611
885,-0.00198554992675781,0.0000456196366856632
886,-0.00204658508300781,0.000055710417964687
887,-0.00203180313110352,0.0000438845648378126
888,-0.00193691253662109,0.0000397823386432047
889,-0.00204229354858398,0.0000462900585155929
890,-0.00204372406005859,0.0000577701549950817
891,-0.00199508666992187,0.0000632955303422742
892,-0.00204324722290039,0.0000571319770166001
893,-0.00201702117919922,0.0000736122913185231
894,-0.00208473205566406,0.000059161445832023
895,-0.00209140777587891,0.0000789881868013331
896,-0.0020599365234375,0.000060874758006696
897,-0.0021204948425293,0.0000655004876465691
898,-0.00201845169067383,0.0000586509704589844
899,-0.0021662712097168,0.000046548441865827
900,-0.00204658508300781,0.0000487552878149772
901,-0.00205421447753906,0.0000604277050762362
902,-0.00211906433105469,0.0000656184066544479
903,-0.00209283828735352,0.0000595302117034554
904,-0.00209236145019531,0.0000467044896703159
905,-0.00221967697143555,0.0000512882642638913
906,-0.0021662712097168,0.0000454373521788467
907,-0.00218963623046875,0.0000431860228873082
908,-0.00222015380859375,0.0000521521227339017
909,-0.00211954116821289,0.0000638979584175748
910,-0.00214862823486328,0.0000570861910035179
911,-0.00220394134521484,0.0000647954853138649
912,-0.00220680236816406,0.0000566895010448552
913,-0.00221586227416992,0.0000578851636273855
914,-0.00226449966430664,0.000053358908945931
915,-0.00222349166870117,0.0000490563245758502
916,-0.00231218338012695,0.0000620071677449072
917,-0.00226545333862305,0.0000499303381161926
918,-0.0023961067199707,0.0000456794069526142
919,-0.00238609313964844,0.0000540100969180666
920,-0.00240135192871094,0.0000468236122641276
921,-0.00226497650146484,0.0000791262379176771
922,-0.00238609313964844,0.0000863773105971367
923,-0.00245523452758789,0.0000660965793363489
924,-0.00240087509155273,0.0000562617332001331
925,-0.00264072418212891,0.0000605808426429446
926,-0.00243711471557617,0.0000671629834590326
927,-0.00255155563354492,0.0000814205556430492
928,-0.00244140625,0.0000588715290678031
929,-0.00250482559204102,0.0000627580019282614
930,-0.00269317626953125,0.0000706620542634686
931,-0.00260829925537109,0.0000817007282096492
932,-0.00277280807495117,0.0000844863408675591
933,-0.00274515151977539,0.0000721396470988367
934,-0.00272798538208008,0.0000963093023338411
935,-0.00275182723999023,0.0000769689620150448
936,-0.00294399261474609,0.0000851965365562139
937,-0.00292396545410156,0.0000787214680008274
938,-0.00279664993286133,0.0000725435298157844
939,-0.00289297103881836,0.0000820824996618271
940,-0.00290203094482422,0.0000747996258789549
941,-0.00301313400268555,0.0000907319750313949
942,-0.0028529167175293,0.0000942932670159018
943,-0.00297260284423828,0.0000741661914643234
944,-0.0029902458190918,0.0000659209047652644
945,-0.00306367874145508,0.0000964767784388769
946,-0.00314569473266602,0.000100183475590614
947,-0.00311994552612305,0.0000855122061594387
948,-0.00323963165283203,0.0000753266889666993
949,-0.00339651107788086,0.0000778238561932096
950,-0.00346279144287109,0.0000866926148417534
951,-0.00338506698608398,0.000108413098982602
952,-0.00347042083740234,0.0000759594259328456
953,-0.00356912612915039,0.0000776498237306668
954,-0.00352096557617187,0.0000657326551604888
955,-0.00368022918701172,0.0000713887495435002
956,-0.00349950790405273,0.000100710897693207
957,-0.00378656387329102,0.0000913214742977076
958,-0.00370121002197266,0.000116066513356181
959,-0.00381040573120117,0.00012230106240486
960,-0.00390148162841797,0.000114076750218079
961,-0.0037846565246582,0.000142685103984918
962,-0.00388479232788086,0.000104020471384207
963,-0.00377082824707031,0.0000758096103439606
964,-0.00400352478027344,0.0000811366133450731
965,-0.00387907028198242,0.0000901108689195077
966,-0.00395822525024414,0.000151382092734156
967,-0.00406837463378906,0.000131409953590139
968,-0.00393581390380859,0.000100106280379829
969,-0.00425386428833008,0.000102210131062996
970,-0.00390100479125977,0.000106267309011584
971,-0.00409460067749023,0.000160577346752163
972,-0.00409126281738281,0.000146217276525643
973,-0.00394439697265625,0.000237608487026992
974,-0.00385808944702148,0.000191106434335408
975,-0.00405454635620117,0.000184604351182283
976,-0.00397062301635742,0.000163723966924069
977,-0.00387716293334961,0.000141053557544589
978,-0.00403165817260742,0.000152017600551214
979,-0.00383186340332031,0.000141201780627109
980,-0.00397109985351562,0.00018116800158301
981,-0.00403451919555664,0.000128957786201214
982,-0.00400161743164063,0.000118120947422117
983,-0.00415229797363281,0.000111302413868025
984,-0.00401735305786133,0.000123838199523794
985,-0.00385093688964844,0.000166808515688022
986,-0.00373077392578125,0.000159289306577878
987,-0.00387334823608398,0.000221285324283953
988,-0.00411748886108398,0.000165365586499146
989,-0.00389337539672852,0.000152047511733557
990,-0.00413799285888672,0.000187148713501524
991,-0.00420761108398438,0.000152498457449031
992,-0.00382852554321289,0.000172817785591702
993,-0.00413846969604492,0.000169547630590749
994,-0.00371170043945312,0.000180055125279448
995,-0.00399589538574219,0.000149811884560774
996,-0.00384187698364258,0.000156707582594369
997,-0.00345182418823242,0.000132882804135529
998,-0.00370264053344727,0.000169437627922974
999,-0.00397920608520508,0.000120970119250691
1000,-0.00347518920898437,0.000206536002920929
1001,-0.00365972518920898,0.000202709078795452
1002,-0.00386762619018555,0.000138302505664165
1003,-0.00412225723266602,0.000177193611889947
1004,-0.00420045852661133,0.000247911302620529
1005,-0.00434398651123047,0.000252044412613007
1006,-0.00393438339233398,0.000207918498851523
1007,-0.00384950637817383,0.000238727369613321
1008,-0.00379705429077148,0.000157714205443859
1009,-0.00401639938354492,0.00021245757705714
1010,-0.00417423248291016,0.000297711399978529
1011,-0.00414228439331055,0.000256848413831585
1012,-0.00426101684570313,0.000322781776214673
1013,-0.00413370132446289,0.000245900072697572
1014,-0.00455045700073242,0.000214943043294407
1015,-0.00432586669921875,0.000257018324598016
1016,-0.00459194183349609,0.000280412685049162
1017,-0.00462007522583008,0.000261202324928776
1018,-0.00473260879516602,0.00028100236655218
1019,-0.00418663024902344,0.000348392773920195
1020,-0.00470256805419922,0.000409454045462998
1021,-0.00496101379394531,0.000248028670979629
1022,-0.00446319580078125,0.000327703366486431
1023,-0.00478887557983398,0.000420301052716692
1024,-0.00471735000610352,0.000375965461938649
1025,-0.00508499145507813,0.000324608099357678
1026,-0.00491237640380859,0.000131855605565677
1027,-0.00528526306152344,0.000191082637351948
1028,-0.00481796264648438,0.000272917529844449
1029,-0.00521421432495117,0.000229516738227712
1030,-0.00536823272705078,0.000366905666047312
1031,-0.00530433654785156,0.000437095064068708
1032,-0.00561189651489258,0.000420041302952857
1033,-0.00490379333496094,0.000351790794449835
1034,-0.0055537223815918,0.000328030695448092
1035,-0.00589990615844727,0.00034619297194026
1036,-0.00674247741699219,0.00025572701663352
1037,-0.00583648681640625,0.000340476423101479
1038,-0.00526094436645508,0.000318075762398238
1039,-0.00626420974731445,0.000443096423209583
1040,-0.00649881362915039,0.000379030055657928
1041,-0.00680065155029297,0.000400624948063987
1042,-0.00634860992431641,0.000318515800225619
1043,-0.00707817077636719,0.000417609180998649
1044,-0.00637960433959961,0.000469711467536065
1045,-0.00698041915893555,0.000466759037236018
1046,-0.00717020034790039,0.000605876731316513
1047,-0.00671815872192383,0.00052162410885618
1048,-0.00713348388671875,0.000512122219944474
1049,-0.00661468505859375,0.000562392992033643
1050,-0.00777578353881836,0.000524642236714277
1051,-0.00734710693359375,0.00049240634798411
1052,-0.0076136589050293,0.00038675462069946
1053,-0.00720643997192383,0.000380820675864512
1054,-0.00846052169799805,0.000434590966023194
1055,-0.00757789611816406,0.000637454061746347
1056,-0.00800085067749023,0.000910858328627514
1057,-0.008819580078125,0.000801667502238674
1058,-0.008514404296875,0.000614071477364541
1059,-0.0082554817199707,0.000553604449606968
1060,-0.00803518295288086,0.000700825401072077
1061,-0.00878524780273438,0.000827464026604853
1062,-0.00996875762939453,0.000812073700053837
1063,-0.00724411010742188,0.000769472758979674
1064,-0.0069122314453125,0.000826020702662872
1065,-0.00636005401611328,0.000651464970382383
1066,-0.00700950622558594,0.000781370690083369
1067,-0.00659465789794922,0.00100404107453846
1068,-0.00823545455932617,0.000921926387874027
1069,-0.00921201705932617,0.000910203075023031
1070,-0.00644874572753906,0.000792410967935218
1071,-0.00857877731323242,0.000617179822270407
1072,-0.00753355026245117,0.00127607182950422
1073,-0.00892019271850586,0.00100777342077383
1074,-0.00658845901489258,0.000766213069565661
1075,-0.00719594955444336,0.00119650216053576
1076,-0.00751924514770508,0.00126868366410985
1077,-0.00745487213134766,0.00131809797167933
1078,-0.0082850456237793,0.00103402926618132
1079,-0.006988525390625,0.000611768508308794
1080,-0.00586175918579102,0.000885749376303574
1081,-0.00770187377929688,0.00123428890827398
1082,-0.00944328308105469,0.0013197749979351
1083,-0.00877857208251953,0.001047368883238
1084,-0.007781982421875,0.000959985828756067
1085,-0.00967884063720703,0.00102931814515578
1086,-0.00491237640380859,0.000965593243820565
1087,-0.0123896598815918,0.00162629631266449
1088,-0.0101318359375,0.00144354918887516
1089,-0.00908756256103516,0.00184407374198718
1090,-0.010108470916748,0.00164356354537091
1091,-0.00727510452270508,0.00182222781903626
1092,-0.00992345809936523,0.00167721788585325
1093,-0.0117244720458984,0.00235687791289537
1094,-0.0138630867004395,0.00258180334207829
1095,-0.0123615264892578,0.00251293309047023
1096,-0.00841903686523438,0.00232314750282816
1097,-0.00879240036010742,0.0020969595933272
1098,-0.0101747512817383,0.00245120941376533
1099,-0.0112490653991699,0.0016090608308672
1100,-0.00835704803466797,0.00215910517280603
