Wavelength (nm),Absorbance (AU),Std.Dev.
190,0.622708797454834,0.000129306421330859
191,0.608133316040039,0.000122367972811473
192,0.59357213973999,0.000117489811627045
193,0.579273223876953,0.0000896073321475553
194,0.565623283386231,0.0000619649841217591
195,0.552501201629639,0.0000489484433356471
196,0.540375232696533,0.0000768270345700709
197,0.528722286224365,0.0000616615163676805
198,0.517190456390381,0.0000486747747618669
199,0.506038188934326,0.0000546243969563192
200,0.495147228240967,0.0000649794517750098
201,0.484644412994385,0.0000362513861892621
202,0.474678039550781,0.0000327233299726648
203,0.464903354644775,0.0000515524704104296
204,0.455483436584473,0.0000567646548614872
205,0.446131229400635,0.0000383016312180008
206,0.436859130859375,0.0000354538928930103
207,0.427750587463379,0.0000518098439048515
208,0.41864013671875,0.0000515436485972466
209,0.410006999969482,0.0000367373555664009
210,0.401415824890137,0.0000426069410394453
211,0.392840385437012,0.0000412319411535407
212,0.384807586669922,0.0000439622137894291
213,0.376725673675537,0.0000548196850440898
214,0.36900520324707,0.0000451902275496969
215,0.361597537994385,0.0000322940583674342
216,0.354498386383057,0.0000402186067275229
217,0.347542285919189,0.0000392660272141269
218,0.340902328491211,0.0000496529230038974
219,0.334442615509033,0.0000560227858016776
220,0.328281879425049,0.0000340204181547628
221,0.322323799133301,0.0000268366562180618
222,0.31658411026001,0.0000370125167280675
223,0.31092643737793,0.0000403962977097664
224,0.305557727813721,0.0000444239779399541
225,0.30021858215332,0.0000336017979999915
226,0.295064926147461,0.0000302800981871729
227,0.290129661560059,0.0000324003743731674
228,0.285236358642578,0.0000417715882550731
229,0.280567169189453,0.0000459214236810909
230,0.275960445404053,0.0000396126567860906
231,0.271465301513672,0.0000467276085979302
232,0.267138481140137,0.0000578104832059234
233,0.262755870819092,0.0000436364623336877
234,0.258641719818115,0.0000439919428820218
235,0.254685401916504,0.0000348955544279816
236,0.250753879547119,0.0000381574020433878
237,0.247081279754639,0.0000396348927542045
238,0.243486404418945,0.0000377673391897583
239,0.239999294281006,0.0000310145826017793
240,0.236703395843506,0.0000424947259124018
241,0.233605861663818,0.0000455223426241403
242,0.230654716491699,0.0000330345267150869
243,0.22791051864624,0.0000246887014734361
244,0.225239276885986,0.0000280797981299415
245,0.222760200500488,0.0000302922978770186
246,0.220507144927979,0.0000307957074975348
247,0.218499183654785,0.0000352359752917068
248,0.216535091400146,0.0000283337185094225
249,0.214745998382568,0.0000329147188969941
250,0.212946891784668,0.0000275917362411792
251,0.211290836334229,0.0000258582508314017
252,0.209697723388672,0.000027887840663156
253,0.208111763000488,0.0000283783215978411
254,0.206532001495361,0.0000279346819226776
255,0.205056190490723,0.0000414622179412464
256,0.203507423400879,0.0000405262495321899
257,0.201882839202881,0.0000489333442152964
258,0.200324535369873,0.0000368424211877726
259,0.198666572570801,0.0000363398721375611
260,0.196958065032959,0.000049925784090452
261,0.195197582244873,0.0000474015470288684
262,0.193373203277588,0.000045664471720254
263,0.191495895385742,0.0000508999935642227
264,0.189598083496094,0.000042638281689407
265,0.187657356262207,0.0000505941976726572
266,0.185624122619629,0.0000490621179228922
267,0.183603286743164,0.0000289700648561649
268,0.181581020355225,0.0000356170546047347
269,0.179410934448242,0.0000509580323442677
270,0.177286148071289,0.0000545640074248005
271,0.175151348114014,0.0000518712481858446
272,0.173046588897705,0.0000375143887615923
273,0.170839786529541,0.0000504411679901424
274,0.168653011322021,0.0000419074488500973
275,0.166582584381104,0.0000381439923075868
276,0.16439962387085,0.0000594681129766727
277,0.162317752838135,0.000049091074402816
278,0.160154342651367,0.0000378702978316541
279,0.157930850982666,0.0000417620614611792
280,0.155846118927002,0.0000498893369192189
281,0.153830528259277,0.0000330138715275433
282,0.1517333984375,0.0000265095301236399
283,0.149538516998291,0.0000271085174628294
284,0.147416114807129,0.0000278786668634608
285,0.145337581634521,0.0000385833162979247
286,0.143309593200684,0.0000398979084887675
287,0.141223430633545,0.0000343686811490867
288,0.139168262481689,0.0000245889207716196
289,0.137145042419434,0.0000268128167122007
290,0.135134696960449,0.0000347453670259193
291,0.133153915405273,0.0000447274779457469
292,0.131370067596436,0.0000467835334259454
293,0.129451274871826,0.0000439583345994171
294,0.127653121948242,0.000056922654206421
295,0.125840187072754,0.0000324940995465255
296,0.124013423919678,0.0000319471999656591
297,0.122319221496582,0.0000361084131250648
298,0.120639801025391,0.00003745752404713
299,0.118881702423096,0.0000328931244274031
300,0.11724328994751,0.0000396886379213479
301,0.115577697753906,0.000054087922820999
302,0.11388111114502,0.0000469509082278728
303,0.112348556518555,0.000047870508540798
304,0.110852718353271,0.0000423312170409511
305,0.109187126159668,0.0000467385556775223
306,0.10759449005127,0.0000360737631524697
307,0.10618257522583,0.0000511850874307609
308,0.104587554931641,0.0000502921938836487
309,0.103053092956543,0.0000442778671178871
310,0.101649761199951,0.0000296565304498664
311,0.100166320800781,0.000025031680049543
312,0.098729133605957,0.0000354009442758839
313,0.097346305847168,0.0000424820162587864
314,0.0960040092468262,0.0000361139225554685
315,0.0946264266967773,0.0000270906880848732
316,0.0933074951171875,0.0000361854688163455
317,0.092015266418457,0.0000440074457403259
318,0.0905318260192871,0.0000648936656607107
319,0.0893421173095703,0.0000559842158929393
320,0.0879635810852051,0.000053923726210322
321,0.0866727828979492,0.000046446974418205
322,0.0853419303894043,0.0000395846647619635
323,0.0841360092163086,0.0000420421943941658
324,0.0829448699951172,0.0000468418185815537
325,0.0816173553466797,0.0000500792535900731
326,0.0803704261779785,0.0000455834875041168
327,0.079195499420166,0.0000402341506971141
328,0.0779533386230469,0.0000320723947921757
329,0.0767216682434082,0.0000416816776781086
330,0.0755538940429688,0.000051458661313834
331,0.0744071006774902,0.0000693597305720539
332,0.0731773376464844,0.0000537336451175228
333,0.0719470977783203,0.0000421124426391815
334,0.0707440376281738,0.0000451172121191629
335,0.0696310997009277,0.0000580469680206749
336,0.068483829498291,0.0000574633291902265
337,0.0673460960388184,0.0000502435690572285
338,0.0662732124328613,0.0000427315006062944
339,0.0651521682739258,0.0000438871553495965
340,0.0641055107116699,0.0000481570119783531
341,0.0629467964172363,0.0000412891144861995
342,0.0618844032287598,0.000042732165724248
343,0.0608553886413574,0.0000377568020575128
344,0.0598335266113281,0.0000459498852029671
345,0.058868408203125,0.0000527341799737936
346,0.0579214096069336,0.0000425955993809
347,0.0568556785583496,0.000032714643362129
348,0.0559320449829102,0.0000305594589033284
349,0.054985523223877,0.0000348042131921384
350,0.0540776252746582,0.0000523099273285824
351,0.0531907081604004,0.0000503419009026305
352,0.0522727966308594,0.0000453935450664992
353,0.0514335632324219,0.0000457142368524155
354,0.0505170822143555,0.000057398994391648
355,0.0496597290039063,0.0000487179649730382
356,0.048856258392334,0.0000437093503487727
357,0.0481009483337402,0.0000556134014444051
358,0.0471634864807129,0.0000675848338459087
359,0.0462865829467773,0.000056780674801796
360,0.045384407043457,0.0000581399238559599
361,0.0445117950439453,0.0000591739351558249
362,0.0436978340148926,0.0000592104273051563
363,0.0428943634033203,0.000057170766869935
364,0.042205810546875,0.0000535269622177475
365,0.041409969329834,0.0000630796268240116
366,0.0406317710876465,0.0000633601579356121
367,0.0398778915405273,0.0000510059760657657
368,0.0391874313354492,0.0000446142259243624
369,0.0384716987609863,0.0000540721563517169
370,0.0377511978149414,0.0000635196494853376
371,0.0371913909912109,0.000066661766499715
372,0.0364041328430176,0.0000822609746773404
373,0.0357508659362793,0.0000940373169828775
374,0.0350050926208496,0.0000637233589019026
375,0.0343170166015625,0.0000624365411075455
376,0.0336194038391113,0.0000905337851433244
377,0.0330023765563965,0.0000899113099487972
378,0.0324563980102539,0.0000814414973238737
379,0.0316438674926758,0.0000666958663364634
380,0.0310244560241699,0.0000648743919621157
381,0.0304045677185059,0.000082921693898996
382,0.0299043655395508,0.0000632182496852427
383,0.029240608215332,0.0000494291799393359
384,0.0288019180297852,0.0000651471950725691
385,0.0281052589416504,0.0000639833027152819
386,0.0275306701660156,0.0000662923705939589
387,0.0269980430603027,0.000064512384511138
388,0.0264644622802734,0.0000726140174727205
389,0.0258011817932129,0.0000757961124162984
390,0.0255837440490723,0.0000597427675143204
391,0.0248913764953613,0.0000596484976620174
392,0.0243930816650391,0.0000796888912048225
393,0.0238323211669922,0.0000750454433463712
394,0.0233364105224609,0.0000729888019879415
395,0.0229597091674805,0.0000590941502544446
396,0.0225114822387695,0.0000758815587407402
397,0.0222430229187012,0.0000688695496554597
398,0.0216455459594727,0.0000683974661244443
399,0.0209083557128906,0.0000885814062856644
400,0.0207333564758301,0.0000728984056235747
401,0.0202784538269043,0.0000759279891796375
402,0.019831657409668,0.0000639744179964005
403,0.0195703506469727,0.0000668473996763213
404,0.0191183090209961,0.00007290776216914
405,0.0188632011413574,0.0000696671979916749
406,0.0182747840881348,0.0000676806476437641
407,0.0180416107177734,0.0000807545935869121
408,0.0178346633911133,0.0000784045578348812
409,0.017176628112793,0.0000621006031306674
410,0.0167899131774902,0.0000941388143863912
411,0.0166902542114258,0.0000608784929981408
412,0.0164690017700195,0.000053867827559746
413,0.0160293579101562,0.0000501008152633823
414,0.0156412124633789,0.0000580900397422227
415,0.0154080390930176,0.0000468612308569753
416,0.0150604248046875,0.0000550411378116916
417,0.0147061347961426,0.0000553326325659718
418,0.0145506858825684,0.0000570034840668466
419,0.0143094062805176,0.0000412780992822189
420,0.0140953063964844,0.0000333266194073346
421,0.0138263702392578,0.0000391493180367675
422,0.0130758285522461,0.0000565167708970225
423,0.0130510330200195,0.0000512827224025221
424,0.0127592086791992,0.0000561282100204853
425,0.0125036239624023,0.0000542159864734783
426,0.0124759674072266,0.0000349338139847725
427,0.0124187469482422,0.0000392638556808164
428,0.0117292404174805,0.0000549646616073839
429,0.0119552612304687,0.0000560390178213734
430,0.0115160942077637,0.0000631624770676939
431,0.0110759735107422,0.0000575759889287592
432,0.0110177993774414,0.0000713998961981928
433,0.0110864639282227,0.0000763103348294097
434,0.0104813575744629,0.000047818232580208
435,0.0103287696838379,0.0000567015323493757
436,0.0103483200073242,0.000058917857250513
437,0.0101437568664551,0.0000512638755925932
438,0.010037899017334,0.0000564019954711379
439,0.00972175598144531,0.000044339446148096
440,0.00957059860229492,0.0000510416258873927
441,0.00972127914428711,0.0000432872551604704
442,0.00899219512939453,0.0000477099346558156
443,0.00928306579589844,0.0000610016194236181
444,0.00885725021362305,0.0000502435690572285
445,0.00873088836669922,0.0000464775602151019
446,0.00867128372192383,0.0000325229509448622
447,0.0083765983581543,0.0000425114433516632
448,0.0083460807800293,0.0000591547197193203
449,0.00826692581176758,0.0000485999767541538
450,0.00798940658569336,0.0000371910057828508
451,0.00786972045898438,0.0000455784991600984
452,0.00775003433227539,0.000055343931753136
453,0.00761699676513672,0.0000596599322442488
454,0.00749921798706055,0.0000727610380562305
455,0.00733804702758789,0.0000528547695419559
456,0.00719881057739258,0.000053986937852309
457,0.00723743438720703,0.0000504783428200112
458,0.00702667236328125,0.0000470150314880399
459,0.00680685043334961,0.0000610286366437746
460,0.00663232803344727,0.000058341956783992
461,0.00661849975585938,0.0000461584772901014
462,0.00649499893188477,0.0000539121293698444
463,0.00659036636352539,0.0000601070213532099
464,0.00628519058227539,0.0000626292525507945
465,0.00603532791137695,0.0000588145340146091
466,0.00570917129516602,0.0000624693075968687
467,0.00580024719238281,0.0000517241950358127
468,0.00562715530395508,0.0000558296697985359
469,0.00555181503295898,0.0000487226318918125
470,0.00557804107666016,0.0000497032693460975
471,0.00542974472045898,0.0000820894245266165
472,0.00541114807128906,0.0000620126678411063
473,0.00541448593139648,0.000049167437571145
474,0.00524520874023438,0.0000592545719433901
475,0.00516414642333984,0.0000658915801342517
476,0.00488376617431641,0.0000571856790382198
477,0.00492763519287109,0.0000644418560277029
478,0.00473690032958984,0.0000454661167276483
479,0.00472545623779297,0.0000534185326156809
480,0.00465917587280273,0.000046294970188217
481,0.00445938110351563,0.000050201691391952
482,0.00433206558227539,0.0000504197518666351
483,0.00441741943359375,0.0000744965547540181
484,0.00400876998901367,0.0000573722494988121
485,0.00711822509765625,0.0000679321434727025
486,0.00217294692993164,0.0000352923928641574
487,0.00385379791259766,0.00004429198654073
488,0.00357294082641602,0.0000574514574190392
489,0.00379467010498047,0.0000695234463513729
490,0.00361537933349609,0.0000955912823886813
491,0.00361394882202148,0.0000842478287710487
492,0.00350522994995117,0.0000503656074130196
493,0.00361347198486328,0.000052318619934239
494,0.00339889526367187,0.0000623016533768681
495,0.00341987609863281,0.0000514133510273868
496,0.00319576263427734,0.0000539806200190656
497,0.00305557250976562,0.0000697715586126582
498,0.00319671630859375,0.000056857707634514
499,0.00314474105834961,0.0000715478226707768
500,0.00293827056884766,0.000100848522560203
501,0.00290584564208984,0.0000631660767871318
502,0.00289011001586914,0.000060423942220197
503,0.00277233123779297,0.0000602071824681551
504,0.0025944709777832,0.0000432714942805887
505,0.00271081924438477,0.0000604352300854589
506,0.00252914428710937,0.0000717873551116132
507,0.00252056121826172,0.0000526629889601685
508,0.00245571136474609,0.0000541981596832505
509,0.00227499008178711,0.0000693843125653022
510,0.00240755081176758,0.0000611765534971986
511,0.00238227844238281,0.0000443445738740468
512,0.00220441818237305,0.0000590181102214809
513,0.0020909309387207,0.0000741002489083445
514,0.00204849243164062,0.0000752874382292579
515,0.00203943252563477,0.0000758965394051589
516,0.00204372406005859,0.0000512716368827535
517,0.00199222564697266,0.0000698269367522639
518,0.00191450119018555,0.000054521277918874
519,0.00170040130615234,0.0000655802795892846
520,0.00165605545043945,0.0000619723224666595
521,0.0016942024230957,0.0000563667105107794
522,0.00171327590942383,0.000057999944208444
523,0.00171327590942383,0.0000498973120128068
524,0.00164318084716797,0.000036400044645942
525,0.00151777267456055,0.0000452781928154592
526,0.00143718719482422,0.0000705718994140625
527,0.00146293640136719,0.0000597218315177981
528,0.00137901306152344,0.0000629858387983642
529,0.00133705139160156,0.0000449366844750627
530,0.00128793716430664,0.0000495061697932954
531,0.00121688842773437,0.0000512084035963512
532,0.00124597549438477,0.0000616393877050738
533,0.00122928619384766,0.0000604709610913849
534,0.00111198425292969,0.0000505379906234293
535,0.00100517272949219,0.0000449164404445388
536,0.00102901458740234,0.0000494682643920098
537,0.00105953216552734,0.0000510416258873927
538,0.000956535339355469,0.0000370271038497994
539,0.000894069671630859,0.000046559431071221
540,0.000876426696777344,0.0000540910755633821
541,0.000875473022460938,0.0000513425428494841
542,0.000884056091308594,0.000052235981776516
543,0.000781059265136719,0.0000542170349256588
544,0.000687122344970703,0.0000554496215152196
545,0.000733852386474609,0.0000461252152420162
546,0.000806331634521484,0.0000445798116888303
547,0.000799655914306641,0.000049728423402724
548,0.000630378723144531,0.0000473823561183535
549,0.000580787658691406,0.000051858096246438
550,0.000510215759277344,0.000058206369504908
551,0.000514507293701172,0.0000331744695897931
552,0.000545978546142578,0.0000361689707022834
553,0.000498771667480469,0.000038565633075227
554,0.000357151031494141,0.0000438417992942735
555,0.000514030456542969,0.0000535757900435949
556,0.000291824340820312,0.000044004862309889
557,0.000331401824951172,0.0000348719265267818
558,0.000288486480712891,0.0000460252848689378
559,0.000348091125488281,0.0000426396148231072
560,0.000333786010742187,0.000030045944096299
561,0.000211715698242187,0.0000389185012425336
562,0.000247001647949219,0.0000388117327597134
563,0.000206947326660156,0.0000458470930663544
564,0.000237464904785156,0.0000405942201892686
565,0.0000872611999511719,0.0000485145194900518
566,0.000173091888427734,0.0000518273954086892
567,0.00008392333984375,0.0000393123246830768
568,0.000105857849121094,0.0000384364469766965
569,0.000172615051269531,0.0000300790338325228
570,0.0000667572021484375,0.0000342701309755763
571,0.000087738037109375,0.0000351835065411595
572,-0.000247478485107422,0.0000375908306567017
573,0.000197887420654297,0.0000362380554462072
574,-0.0000166893005371094,0.0000475021721092692
575,-0.00029754638671875,0.0000370784968488139
576,0.000154018402099609,0.0000323714137272223
577,0.0000224113464355469,0.00003642190091078
578,-0.000358104705810547,0.0000369094754286501
579,-0.000217914581298828,0.0000355779320814529
580,0.0000543594360351563,0.0000309228069889606
581,0.000141143798828125,0.0000293506731240622
582,-0.000527381896972656,0.0000250589155422845
583,-0.000502586364746094,0.0000385206516811766
584,0.0000753402709960938,0.0000430693776096747
585,-0.000247001647949219,0.0000293893815788964
586,-0.000571250915527344,0.0000352545224530353
587,-0.0000958442687988281,0.0000308316800322216
588,-0.000555038452148438,0.0000389352942405588
589,-0.000462055206298828,0.000045332143989182
590,-0.000347614288330078,0.000040798845994722
591,-0.000473499298095703,0.0000480849550855798
592,0.00000905990600585938,0.0000319320723963412
593,-0.000505924224853516,0.0000233443324303473
594,-0.000375270843505859,0.0000218182311668439
595,-0.000430107116699219,0.0000394998501375823
596,-0.000591754913330078,0.0000337090483850783
597,-0.0003204345703125,0.0000290220150742505
598,-0.000521183013916016,0.0000221376497331685
599,-0.000372886657714844,0.0000353647974937719
600,-0.000528812408447266,0.0000348180929122267
601,-0.000613689422607422,0.0000339694186419845
602,-0.000559806823730469,0.0000400500635881428
603,-0.000566959381103516,0.00003594273752025
604,-0.000753402709960938,0.0000293448624519247
605,-0.000440120697021484,0.0000298590120922033
606,-0.000766754150390625,0.0000279346819226776
607,-0.000571727752685547,0.0000340103915061056
608,-0.000763893127441406,0.0000337149499029671
609,-0.000696659088134766,0.0000350572611478639
610,-0.000598430633544922,0.0000342419216873394
611,-0.000847816467285156,0.0000426902430550163
612,-0.000687599182128906,0.0000395487485690002
613,-0.000639915466308594,0.0000338277233210709
614,-0.000815391540527344,0.000043861243346777
615,-0.000695228576660156,0.0000434353896263199
616,-0.000964164733886719,0.0000340279362024008
617,-0.000802040100097656,0.0000330560288111157
618,-0.000802993774414063,0.0000352738656152714
619,-0.000779628753662109,0.0000470476644525513
620,-0.000771045684814453,0.0000394119685348301
621,-0.000916957855224609,0.0000330242007361793
622,-0.000721931457519531,0.0000339133144032064
623,-0.00095367431640625,0.0000281510661263114
624,-0.000845432281494141,0.0000356712759962296
625,-0.000952243804931641,0.0000330723610545069
626,-0.000940799713134766,0.0000296234484888771
627,-0.000931739807128906,0.0000250277057305833
628,-0.00105094909667969,0.0000265775232945779
629,-0.000851154327392578,0.0000309016600434785
630,-0.000995159149169922,0.0000289720269330284
631,-0.000946521759033203,0.0000376308816088655
632,-0.00104284286499023,0.0000328429705767108
633,-0.000995635986328125,0.0000261288706649892
634,-0.00100040435791016,0.0000241709879618394
635,-0.00100088119506836,0.0000316226093894754
636,-0.000931262969970703,0.0000448556535343892
637,-0.000986576080322266,0.0000433397500320034
638,-0.0010828971862793,0.0000415197587154806
639,-0.00118017196655273,0.0000409282141121397
640,-0.00112819671630859,0.0000516340007302322
641,-0.0011138916015625,0.0000411677851400217
642,-0.00111579895019531,0.000041879633343073
643,-0.00107240676879883,0.0000422660398492527
644,-0.00108432769775391,0.0000469739058769744
645,-0.00112390518188477,0.000041380564879699
646,-0.00118732452392578,0.0000418117130367096
647,-0.00111007690429687,0.0000379916845074503
648,-0.00106143951416016,0.0000315623338100284
649,-0.00112533569335937,0.0000272350834901361
650,-0.00122213363647461,0.0000309457764088742
651,-0.00121784210205078,0.0000382399915035854
652,-0.00118541717529297,0.0000428868570086357
653,-0.00111293792724609,0.0000379302904202835
654,-0.00137948989868164,0.0000419467661139384
655,0.00130701065063477,0.0000247507883725535
656,-0.000601291656494141,0.0000322173994667222
657,-0.00469398498535156,0.0000473427502969743
658,-0.00106191635131836,0.0000385730020698629
659,-0.00138282775878906,0.0000342394315166783
660,-0.0011754035949707,0.0000340371226721961
661,-0.00122499465942383,0.0000284513392705394
662,-0.00128173828125,0.00002866184029989
663,-0.00127029418945312,0.0000310878080197279
664,-0.00123882293701172,0.0000508798877923185
665,-0.0012354850769043,0.0000548217588372413
666,-0.00130081176757812,0.0000418164710490517
667,-0.00139188766479492,0.0000366040465791435
668,-0.00129222869873047,0.0000301799688885883
669,-0.00133466720581055,0.0000315551290313441
670,-0.00133562088012695,0.0000344982704014091
671,-0.00128173828125,0.0000459276124688282
672,-0.00131130218505859,0.0000371971189541734
673,-0.00144577026367187,0.000043519065127877
674,-0.00130414962768555,0.0000356298200026105
675,-0.0013127326965332,0.0000297889679552024
676,-0.00136756896972656,0.0000326676957511975
677,-0.00127029418945312,0.0000406494937590227
678,-0.0012664794921875,0.0000385309799227399
679,-0.00135469436645508,0.0000479108645344367
680,-0.001312255859375,0.0000328187309409519
681,-0.00136804580688477,0.0000392761594487624
682,-0.00136280059814453,0.0000391253532881373
683,-0.00127553939819336,0.0000389389439339743
684,-0.00128746032714844,0.0000401620324883377
685,-0.00132513046264648,0.0000408211320752449
686,-0.00133752822875977,0.0000436729215470588
687,-0.00137901306152344,0.0000386818990572212
688,-0.00140857696533203,0.0000378770517414956
689,-0.00138187408447266,0.0000373267871601249
690,-0.0013580322265625,0.0000391064616276029
691,-0.00133466720581055,0.0000335814917295163
692,-0.00142526626586914,0.0000477896943178082
693,-0.00142288208007812,0.0000523609757213757
694,-0.00146770477294922,0.0000318116863114637
695,-0.00136137008666992,0.0000208292437321934
696,-0.00131845474243164,0.0000345937060355868
697,-0.00133419036865234,0.0000384290517968345
698,-0.00139093399047852,0.0000372925071006031
699,-0.00137090682983398,0.0000322315113375114
700,-0.0013432502746582,0.0000246079853121743
701,-0.00141239166259766,0.0000296013733083341
702,-0.00138330459594727,0.0000342170118256411
703,-0.00133800506591797,0.0000414581048299877
704,-0.00144004821777344,0.0000401046697613453
705,-0.00140619277954102,0.0000313246084792016
706,-0.00136327743530273,0.0000283472571993449
707,-0.00141811370849609,0.0000381208867050146
708,-0.0015110969543457,0.0000378056996210381
709,-0.00147771835327148,0.0000474051444596806
710,-0.00143051147460937,0.0000391747191745403
711,-0.00150394439697266,0.000033424550173343
712,-0.00145864486694336,0.0000347535460630199
713,-0.00146245956420898,0.0000381618709081971
714,-0.00144863128662109,0.0000452593575083438
715,-0.00150060653686523,0.000035065367435379
716,-0.00153303146362305,0.0000545306604347187
717,-0.00151920318603516,0.0000352053107476849
718,-0.00142383575439453,0.0000358421716174433
719,-0.00152301788330078,0.0000271692590500082
720,-0.00158262252807617,0.0000349159104751365
721,-0.001495361328125,0.0000431636409097037
722,-0.00167417526245117,0.0000503272198477115
723,-0.00153350830078125,0.0000363383078876352
724,-0.00155067443847656,0.0000286027779412102
725,-0.00154447555541992,0.0000337014592007202
726,-0.00156116485595703,0.0000366854846628539
727,-0.00166893005371094,0.0000482548837965044
728,-0.0015873908996582,0.0000514056111334283
729,-0.00159025192260742,0.0000372772613998308
730,-0.00155210494995117,0.0000330904031029503
731,-0.00163555145263672,0.0000428430955748339
732,-0.0017247200012207,0.0000496540678058574
733,-0.00177669525146484,0.0000466557807978366
734,-0.00163507461547852,0.0000408294862192866
735,-0.00174713134765625,0.0000354787354235425
736,-0.00170278549194336,0.0000306365554889851
737,-0.00178337097167969,0.000030964139676814
738,-0.00184774398803711,0.0000371940624941063
739,-0.00171804428100586,0.0000520790446103286
740,-0.00178289413452148,0.000037984202736467
741,-0.00179386138916016,0.0000330611872332873
742,-0.00183010101318359,0.0000506548312343144
743,-0.00182533264160156,0.0000497706992829746
744,-0.00180435180664062,0.0000609904363835124
745,-0.0018467903137207,0.0000374476587158147
746,-0.00188493728637695,0.0000411201208343749
747,-0.0018310546875,0.0000325997631743187
748,-0.001861572265625,0.0000392305437848671
749,-0.00184822082519531,0.0000493117407117985
750,-0.00181102752685547,0.0000468163277546951
751,-0.00182533264160156,0.0000610742592721862
752,-0.00187063217163086,0.0000374294389651177
753,-0.00181913375854492,0.0000355795297612292
754,-0.00173044204711914,0.00003379914479459
755,-0.00175333023071289,0.0000360524841816932
756,-0.00180339813232422,0.0000360895172641266
757,-0.00175952911376953,0.0000491269567344873
758,-0.00181007385253906,0.0000456955812790791
759,-0.00183725357055664,0.0000463649049872642
760,-0.00185728073120117,0.0000467786730515698
761,-0.00191497802734375,0.0000499371683761069
762,-0.00191354751586914,0.0000420665243698099
763,-0.00183010101318359,0.000031841156053155
764,-0.00180721282958984,0.0000378597893548569
765,-0.00176143646240234,0.0000354867454332225
766,-0.0019989013671875,0.0000391456879572918
767,-0.0019073486328125,0.0000354418660624146
768,-0.00180435180664062,0.0000314856987366088
769,-0.00177812576293945,0.0000358064702589563
770,-0.00174665451049805,0.0000375870500620429
771,-0.00178337097167969,0.0000421650520183421
772,-0.00185585021972656,0.000036807690027065
773,-0.00191736221313477,0.0000421610074736874
774,-0.00186300277709961,0.0000380163639047193
775,-0.00185441970825195,0.0000311079147916796
776,-0.00182104110717773,0.0000328965804951223
777,-0.0017552375793457,0.0000406592812372388
778,-0.00175619125366211,0.0000263012544534781
779,-0.00170707702636719,0.0000330233400921924
780,-0.00181674957275391,0.0000430158920720822
781,-0.00171279907226562,0.0000443458557128906
782,-0.00171947479248047,0.0000480175255071739
783,-0.00180721282958984,0.0000404644866554065
784,-0.00182151794433594,0.0000311654215128663
785,-0.00186395645141602,0.0000386863073345882
786,-0.00181245803833008,0.0000479879212395062
787,-0.00181818008422852,0.0000441994866419085
788,-0.00176572799682617,0.0000380723939482482
789,-0.00185489654541016,0.0000433410615891473
790,-0.00181865692138672,0.0000398208991930255
791,-0.00183677673339844,0.0000502299909372461
792,-0.00186252593994141,0.0000467725968733516
793,-0.00176143646240234,0.0000526284374403395
794,-0.00180673599243164,0.0000491778415432392
795,-0.0018000602722168,0.0000321935716578499
796,-0.00206136703491211,0.0000559212289314934
797,-0.00191116333007812,0.0000462888305160035
798,-0.00190639495849609,0.0000428795665378242
799,-0.00190210342407227,0.0000397272894201245
800,-0.00193595886230469,0.0000334271010491024
801,-0.00193929672241211,0.000044639700845598
802,-0.00196123123168945,0.0000407709712632237
803,-0.00192546844482422,0.0000507030616570529
804,-0.00192451477050781,0.0000544231860805784
805,-0.00194311141967773,0.0000533301380017122
806,-0.00194644927978516,0.0000604953964620164
807,-0.0019526481628418,0.0000492667634958549
808,-0.0019688606262207,0.0000449227676840642
809,-0.00185012817382812,0.0000492736857397824
810,-0.00198936462402344,0.0000426496119976004
811,-0.00199031829833984,0.0000495704277822474
812,-0.00201988220214844,0.0000459672009795458
813,-0.00206136703491211,0.0000407095796697394
814,-0.00203227996826172,0.0000500133762462703
815,-0.00198507308959961,0.0000369548797607422
816,-0.00199079513549805,0.0000512084035963512
817,-0.00199079513549805,0.0000443881356282659
818,-0.00214958190917969,0.000052004770767301
819,-0.00203800201416016,0.0000543960230658501
820,-0.00202131271362305,0.000044280434620549
821,-0.00205850601196289,0.0000355579550272643
822,-0.00202846527099609,0.0000493013649961961
823,-0.00206899642944336,0.0000367489584246285
824,-0.00215578079223633,0.0000417960757539551
825,-0.00214099884033203,0.0000458297319096114
826,-0.00210094451904297,0.0000345048606436778
827,-0.00208234786987305,0.0000384408834017321
828,-0.00218772888183594,0.0000353286137277811
829,-0.00218820571899414,0.0000412429686854719
830,-0.00225019454956055,0.0000367373555664009
831,-0.00222444534301758,0.0000397423104067493
832,-0.00224447250366211,0.0000407395893928482
833,-0.00217962265014648,0.0000598064819931543
834,-0.0021214485168457,0.0000457453125679756
835,-0.0021510124206543,0.0000402906236713575
836,-0.00224399566650391,0.0000537748863716794
837,-0.00223016738891602,0.0000294738790921775
838,-0.00227928161621094,0.0000335493149984148
839,-0.0021214485168457,0.000054047972166002
840,-0.00221109390258789,0.0000417082623397008
841,-0.00223827362060547,0.0000510972789404155
842,-0.00227451324462891,0.0000519095889761973
843,-0.00218439102172852,0.0000565861271375707
844,-0.00210952758789062,0.0000495509297014066
845,-0.0021815299987793,0.000042447212483637
846,-0.00214099884033203,0.0000355915100735148
847,-0.00221776962280273,0.0000346929755276014
848,-0.00215005874633789,0.0000524520874023438
849,-0.00220251083374023,0.0000489240501327405
850,-0.00219297409057617,0.0000404159929283468
851,-0.00220012664794922,0.0000290107507599015
852,-0.00211477279663086,0.0000271289543790451
853,-0.00215578079223633,0.0000535354572125983
854,-0.00204086303710937,0.0000442264857636282
855,-0.00204849243164062,0.000041254682208344
856,-0.00215578079223633,0.000042538845729697
857,-0.00215482711791992,0.000038559736865572
858,-0.0022120475769043,0.0000399021824251661
859,-0.0020136833190918,0.0000479381449130517
860,-0.0021209716796875,0.000034501565679896
861,-0.00212240219116211,0.0000391151819893185
862,-0.00204277038574219,0.0000416666737194943
863,-0.00208139419555664,0.0000413455213463451
864,-0.00207185745239258,0.0000414368472510828
865,-0.00200891494750977,0.0000488984822971125
866,-0.00203800201416016,0.0000431728584233879
867,-0.0019841194152832,0.0000396535326613868
868,-0.00205755233764648,0.0000363445644833922
869,-0.00195837020874023,0.0000524173968645527
870,-0.00213956832885742,0.0000440874569977275
871,-0.00202798843383789,0.0000412436578083186
872,-0.00199270248413086,0.0000444022199869361
873,-0.00197505950927734,0.0000507221168489661
874,-0.00194120407104492,0.0000534802156259716
875,-0.00199079513549805,0.000052068128631125
876,-0.0019993782043457,0.0000485660459808122
877,-0.00192785263061523,0.0000441003484442434
878,-0.0019688606262207,0.0000547647009115722
879,-0.00191211700439453,0.000064089823270797
880,-0.00192070007324219,0.0000680007238012141
881,-0.00201749801635742,0.0000572125111464334
882,-0.00196552276611328,0.0000434772475071423
883,-0.00198554992675781,0.000057480143335465
884,-0.00201082229614258,0.0000619319508093511
885,-0.00193977355957031,0.0000503396425574797
886,-0.00196599960327148,0.0000531860498268978
887,-0.00206661224365234,0.0000630147115199348
888,-0.00193881988525391,0.0000485730680854802
889,-0.00192642211914062,0.0000616117157002202
890,-0.00199365615844727,0.0000648463472652634
891,-0.00199604034423828,0.0000678869429828658
892,-0.00202417373657227,0.0000584538955735473
893,-0.00197267532348633,0.0000749408418917738
894,-0.00194025039672852,0.0000558327241886576
895,-0.00201511383056641,0.0000495979414353089
896,-0.00200796127319336,0.0000508798877923185
897,-0.00205278396606445,0.0000561798361409813
898,-0.00198936462402344,0.0000566393431002564
899,-0.00204753875732422,0.0000449328894140826
900,-0.00192642211914062,0.000052037551707312
901,-0.00193977355957031,0.0000551906825748265
902,-0.00203609466552734,0.00006482530578055
903,-0.00204610824584961,0.0000618676688781093
904,-0.00192832946777344,0.0000533663655476387
905,-0.00200462341308594,0.0000480624890706413
906,-0.00205802917480469,0.0000489530882818842
907,-0.00205230712890625,0.0000473259378137777
908,-0.00212574005126953,0.0000555244060331561
909,-0.00204610824584961,0.0000603618212294831
910,-0.00206184387207031,0.0000470464562278833
911,-0.00208044052124023,0.0000481239500792177
912,-0.00209379196166992,0.0000525094931918254
913,-0.00213193893432617,0.0000588502831288968
914,-0.00221347808837891,0.0000568647054447302
915,-0.00208806991577148,0.0000493647380886685
916,-0.00220537185668945,0.0000477027854934685
917,-0.00219535827636719,0.000064811274328918
918,-0.00230169296264648,0.0000495325715551918
919,-0.00227022171020508,0.0000469000313031647
920,-0.00223064422607422,0.0000527751251759943
921,-0.00222349166870117,0.0000757075664023946
922,-0.00234031677246094,0.0000626419579100087
923,-0.00236988067626953,0.0000568367090343883
924,-0.00250101089477539,0.000040253925250169
925,-0.00255870819091797,0.0000377620709911709
926,-0.00250625610351562,0.0000564110651793224
927,-0.00258493423461914,0.0000746946801855797
928,-0.00260829925537109,0.0000525397954575249
929,-0.00258350372314453,0.0000492852206524436
930,-0.0027313232421875,0.0000479322157167404
931,-0.00280857086181641,0.0000752511886079794
932,-0.00291824340820312,0.0000810328598355328
933,-0.00290775299072266,0.0000662649260179146
934,-0.00298738479614258,0.0000841708759199741
935,-0.00310039520263672,0.0000699391870113619
936,-0.00322341918945312,0.000070308826457361
937,-0.00327825546264648,0.0000728656482526225
938,-0.00320816040039062,0.0000895387949222479
939,-0.00332975387573242,0.0000762268605935716
940,-0.00352621078491211,0.0000696884088912352
941,-0.00354862213134766,0.0000946782962493199
942,-0.00342273712158203,0.000105543787630134
943,-0.00353431701660156,0.0000897569165485568
944,-0.00374937057495117,0.0000640614351078314
945,-0.00383806228637695,0.0000614861130792525
946,-0.00390386581420898,0.000124127957135914
947,-0.004058837890625,0.0000926733967697406
948,-0.00404453277587891,0.0000872729246673755
949,-0.00435543060302734,0.0000754262337205373
950,-0.00447750091552734,0.0000856609785952973
951,-0.00460720062255859,0.0000961107847151231
952,-0.0045781135559082,0.0000840113460160791
953,-0.00478363037109375,0.000078943556229901
954,-0.00480508804321289,0.000105948023149474
955,-0.00513935089111328,0.0000847456483398996
956,-0.00535106658935547,0.0000990995650330721
957,-0.00553321838378906,0.0000849680465979624
958,-0.0054473876953125,0.000118926666930806
959,-0.00558853149414063,0.00013928543169879
960,-0.00566768646240234,0.000132096802944717
961,-0.00596809387207031,0.0001280554156331
962,-0.00580883026123047,0.000101527130376779
963,-0.00588274002075195,0.000117839573601864
964,-0.0059351921081543,0.0000904760026930193
965,-0.00573062896728516,0.000125349234013731
966,-0.00592660903930664,0.000111755005457232
967,-0.00580549240112305,0.000150272565527844
968,-0.00563907623291016,0.000147224582637046
969,-0.00548648834228516,0.000160962031452779
970,-0.00520753860473633,0.000127139487707833
971,-0.00555801391601563,0.000151279923257226
972,-0.00546503067016602,0.000105386405910346
973,-0.00535106658935547,0.000130747322781478
974,-0.00522089004516602,0.000181584197875464
975,-0.00499773025512695,0.000210448934417674
976,-0.00495433807373047,0.000190410337932256
977,-0.0047450065612793,0.000144105837930256
978,-0.00508356094360352,0.000141995028235513
979,-0.00481367111206055,0.000142949386005796
980,-0.00466728210449219,0.00016249166343899
981,-0.00440263748168945,0.000103777557839083
982,-0.0043492317199707,0.000124105973967914
983,-0.00436973571777344,0.000161964674183096
984,-0.00436973571777344,0.000126458077406204
985,-0.00409936904907227,0.000167822294197768
986,-0.00373363494873047,0.000165324332079945
987,-0.00387811660766602,0.00021055262939042
988,-0.00395679473876953,0.00019552416805685
989,-0.00384187698364258,0.000165145443842889
990,-0.00371837615966797,0.000185621381532316
991,-0.00347900390625,0.000152274644710473
992,-0.00304508209228516,0.000182318985189138
993,-0.00336360931396484,0.000212556013335949
994,-0.00349998474121094,0.000180660252595371
995,-0.00307178497314453,0.000196443020227814
996,-0.0029597282409668,0.000192197910517282
997,-0.00263690948486328,0.00019942513462231
998,-0.00255298614501953,0.000170737002964284
999,-0.00276041030883789,0.000152468634732905
1000,-0.00236988067626953,0.000235308387959154
1001,-0.00216484069824219,0.000251451927149612
1002,-0.00207090377807617,0.000182697716337853
1003,-0.00223779678344727,0.00023449918690391
1004,-0.00266551971435547,0.000278244185911797
1005,-0.00282430648803711,0.000303795793843677
1006,-0.00246143341064453,0.000300296884216586
1007,-0.00190448760986328,0.000258345426115704
1008,-0.00221157073974609,0.00012348885643906
1009,-0.00230979919433594,0.000167317531703263
1010,-0.00217390060424805,0.000229112191311432
1011,-0.00223779678344727,0.000206298073366579
1012,-0.00211143493652344,0.000316694549578472
1013,-0.00183725357055664,0.000257830926659287
1014,-0.00198507308959961,0.000233881699462423
1015,-0.00206375122070312,0.000301710963856219
1016,-0.00199460983276367,0.00028081458050201
1017,-0.00197029113769531,0.000251842257222327
1018,-0.00243043899536133,0.000215441761527981
1019,-0.00148868560791016,0.000217922406713434
1020,-0.00256919860839844,0.000257915572402428
1021,-0.00236177444458008,0.000269456454797313
1022,-0.00199031829833984,0.000323035267583307
1023,-0.00199270248413086,0.000314764538714792
1024,-0.00201272964477539,0.00047356820157394
1025,-0.00214004516601562,0.000379576754657158
1026,-0.00191640853881836,0.000287927527437037
1027,-0.00216531753540039,0.000295312762954131
1028,-0.00151538848876953,0.000406180180340707
1029,-0.00219917297363281,0.000355637415364793
1030,-0.00210189819335937,0.000396710175310374
1031,-0.00256872177124023,0.000370232042769938
1032,-0.00278377532958984,0.000328341078711385
1033,-0.00259733200073242,0.000311838377230195
1034,-0.00214815139770508,0.000339073803530322
1035,-0.00283956527709961,0.000363888928961193
1036,-0.00313186645507812,0.000317572115416635
1037,-0.00318193435668945,0.000334580701584863
1038,-0.00224971771240234,0.000360302145084179
1039,-0.00263309478759766,0.000423311096148104
1040,-0.00259685516357422,0.000364927187548967
1041,-0.00280523300170898,0.000394069490521046
1042,-0.00367832183837891,0.000293223449142127
1043,-0.00296688079833984,0.000471219348573093
1044,-0.00253438949584961,0.000379231562771283
1045,-0.00321674346923828,0.000334335964004323
1046,-0.00286960601806641,0.000548322095609221
1047,-0.00337362289428711,0.000548109742560405
1048,-0.0032353401184082,0.000496599745645457
1049,-0.00245285034179687,0.000554982736419443
1050,-0.00236892700195312,0.000548308825953093
1051,-0.00333070755004883,0.000554011729114749
1052,-0.00374794006347656,0.000402328508861526
1053,-0.00275421142578125,0.000426282818577328
1054,-0.00356674194335937,0.000357738477768149
1055,-0.00228071212768555,0.000617203399900055
1056,-0.00421285629272461,0.000866616607812251
1057,-0.00389766693115234,0.000855019951371133
1058,-0.00404119491577148,0.000629101294280892
1059,-0.00408029556274414,0.00055177456484319
1060,-0.00307703018188477,0.000614604438234827
1061,-0.00401163101196289,0.000668922148950872
1062,-0.00589895248413086,0.000742563917675291
1063,-0.00366783142089844,0.000744169124548129
1064,-0.00348615646362305,0.000902190016783311
1065,-0.00219202041625977,0.000743445252997038
1066,-0.00240182876586914,0.000762615134925153
1067,-0.00303459167480469,0.00107615037124667
1068,-0.00584888458251953,0.000896932595842649
1069,-0.00501918792724609,0.000793695414019762
1070,-0.00191736221313477,0.00101025399106202
1071,-0.00484561920166016,0.000713990682208212
1072,-0.00347089767456055,0.00101163585058092
1073,-0.00593805313110352,0.000864834862217984
1074,-0.00296640396118164,0.000821356676473192
1075,-0.00360918045043945,0.00126964678605412
1076,-0.00272130966186523,0.000999974703096262
1077,-0.00225687026977539,0.000931067502377926
1078,-0.00369119644165039,0.0011551165357311
1079,-0.00270223617553711,0.000635613736860012
1080,-0.00308132171630859,0.000826760280919958
1081,-0.00171518325805664,0.000793512049014653
1082,-0.00397872924804687,0.000871723014050517
1083,-0.00515604019165039,0.000991234238825178
1084,-0.00528717041015625,0.00130928057111591
1085,-0.00548028945922852,0.00152866109881558
1086,-0.000922203063964844,0.00121148923640826
1087,-0.00402307510375977,0.00173024172187052
1088,-0.00769376754760742,0.00155201463392621
1089,-0.00483512878417969,0.00188898015588237
1090,-0.00721883773803711,0.00164374061344281
1091,-0.00171041488647461,0.0018981712806129
1092,-0.00180625915527344,0.0020006477938542
1093,-0.00632047653198242,0.00205914517496475
1094,-0.010810375213623,0.00223347185795661
1095,-0.00749444961547852,0.00215964428869069
1096,-0.00358057022094727,0.00216760752649899
1097,-0.00396919250488281,0.00259206363423426
1098,-0.00538110733032227,0.00217050575758103
1099,-0.00852346420288086,0.00150037431268582
1100,-0.00828790664672852,0.00177838551728031
