Wavelength (nm),Absorbance (AU),Std.Dev.
190,3.05443143844604,0.0388751304599744
191,3.17361974716187,0.0257964349590181
192,3.1180272102356,0.0209228658064056
193,3.16887331008911,0.0304388633281708
194,3.08713531494141,0.0185080494251601
195,3.06233835220337,0.0121679060491964
196,3.04815053939819,0.0129296607625172
197,3.00957298278809,0.00850428044306746
198,2.95830345153809,0.0134958102117805
199,2.92419767379761,0.011885724996746
200,2.86819171905518,0.00563956256487315
201,2.82159757614136,0.0028709240298808
202,2.76531076431274,0.00316111144446645
203,2.72333002090454,0.00355650917996005
204,2.64519262313843,0.00405321233297949
205,2.58434677124023,0.00461269937668446
206,2.5351095199585,0.004166068590474
207,2.46626138687134,0.0031132417243162
208,2.41558933258057,0.00231431115596274
209,2.35949087142944,0.00186238505645629
210,2.29634428024292,0.00214167310296909
211,2.24660921096802,0.00191796969590484
212,2.20171546936035,0.00166973966307124
213,2.14735794067383,0.00214796928158786
214,2.0967321395874,0.00175060942162838
215,2.05325269699097,0.00116112266452676
216,2.01018619537354,0.000724551512163602
217,1.97023677825928,0.000583910415903532
218,1.93326377868652,0.000867958899587159
219,1.8946328163147,0.000964115209467811
220,1.85658121109009,0.00056349160622228
221,1.82188701629639,0.000649182575958977
222,1.78494215011597,0.000464508905241449
223,1.74885749816895,0.000348685032275555
224,1.71353769302368,0.000246896684650946
225,1.67981243133545,0.000344760849844208
226,1.64507961273193,0.00033940088530785
227,1.61147689819336,0.000214188542519972
228,1.57840871810913,0.00037276834430471
229,1.54826498031616,0.000492627943039647
230,1.51569175720215,0.000363238510314645
231,1.48496913909912,0.000369031297676323
232,1.45531272888184,0.000298839595362608
233,1.42668533325195,0.000187561336806328
234,1.39925813674927,0.000192216837880617
235,1.3723874092102,0.000269186295861533
236,1.34586477279663,0.000256990013938174
237,1.32123613357544,0.000291998817295222
238,1.2973370552063,0.000354807861582296
239,1.27472019195557,0.000315376506077874
240,1.2531590461731,0.000183045854400789
241,1.23231506347656,0.00015889771054335
242,1.21311902999878,0.000225571697217067
243,1.19570875167847,0.000179184212368132
244,1.17925357818604,0.000107891717420716
245,1.16471004486084,0.00010447631627947
246,1.15159034729004,0.000157081479682041
247,1.13990688323975,0.000220346239267762
248,1.12891530990601,0.000149291919277794
249,1.11943006515503,0.000139751526738966
250,1.11093854904175,0.000104519833574042
251,1.10280323028564,0.000135243661394371
252,1.09581470489502,0.000210738288613085
253,1.08975696563721,0.000148016275696317
254,1.08326387405395,0.000151373080554196
255,1.07782697677612,0.000124061995945992
256,1.07174253463745,0.000126709549641681
257,1.06661415100098,0.000175284197848218
258,1.06073093414307,0.000191961161011888
259,1.05494022369385,0.000160009953907904
260,1.04889869689941,0.000125069578138701
261,1.04281997680664,0.000133347406852786
262,1.03639078140259,0.000146369591086957
263,1.02951192855835,0.000234021650626515
264,1.02306985855103,0.000194801840178099
265,1.01580572128296,0.000281306443246256
266,1.00787687301636,0.000304334195334254
267,0.999637126922607,0.000219116921543255
268,0.991973876953125,0.000205671093203345
269,0.983016967773438,0.000198304644210008
270,0.97377872467041,0.000168679080653957
271,0.964470386505127,0.000193292633974582
272,0.954955577850342,0.000126105173805438
273,0.945395946502686,0.000109194668094386
274,0.935192584991455,0.000109954140761808
275,0.924965381622314,0.0000844069117213646
276,0.914713859558106,0.0000960445209927767
277,0.904217720031738,0.000144020610221709
278,0.893503189086914,0.000189265311993584
279,0.883042812347412,0.000140527073760168
280,0.87239408493042,0.000103327432485823
281,0.861093521118164,0.000108647741505799
282,0.850000858306885,0.0000715208051999304
283,0.838592529296875,0.000055846975800439
284,0.826718330383301,0.0000719581872400127
285,0.814613819122314,0.000101846880530138
286,0.802760124206543,0.0000891545228585993
287,0.790746688842773,0.0000843044859245613
288,0.778666496276856,0.0000766166181641941
289,0.766314506530762,0.0000958288474510742
290,0.754185199737549,0.000117843432576325
291,0.742331027984619,0.0000867581589931042
292,0.7308030128479,0.0000573514392928529
293,0.719434261322022,0.0000601542879422682
294,0.708331108093262,0.0000942715624055005
295,0.697312831878662,0.0000680709051787739
296,0.686503887176514,0.0000645440971853422
297,0.676214218139648,0.0000906191351884787
298,0.665455341339111,0.0000687919203613331
299,0.655004024505615,0.0000723347981216486
300,0.644803047180176,0.000113625402261192
301,0.634810924530029,0.000108146415185382
302,0.624870777130127,0.000114122583783353
303,0.615005970001221,0.000139797074903936
304,0.605465412139893,0.0000985958118780912
305,0.595949172973633,0.0000666737034263931
306,0.586397647857666,0.000106805137034634
307,0.577464103698731,0.000134481605228205
308,0.568459510803223,0.000112288823121578
309,0.559535503387451,0.0000866191465108943
310,0.551155567169189,0.0000780295603026114
311,0.542710304260254,0.0000840221711742616
312,0.534506797790527,0.0000831694772998725
313,0.526390552520752,0.0000793041982669253
314,0.518668174743652,0.0000905237386709922
315,0.511083602905273,0.0000735875767664354
316,0.503272533416748,0.0000786564537009542
317,0.495995998382568,0.000100997216930638
318,0.488556385040283,0.0000740173541124288
319,0.481269359588623,0.0000702732442466659
320,0.474152088165283,0.0000559994440303925
321,0.467079639434814,0.0000561018725384718
322,0.460278511047363,0.0000693843125653022
323,0.453341960906982,0.0000783218640596798
324,0.446665287017822,0.000101314151056056
325,0.43995475769043,0.0000797516383729734
326,0.433206558227539,0.0000908646955791667
327,0.426440715789795,0.0000684755426045704
328,0.420042991638184,0.0000527374136455478
329,0.413508892059326,0.0000475033687430308
330,0.406895637512207,0.0000635715322084343
331,0.400506019592285,0.0000602883229887661
332,0.394105911254883,0.000063710869198376
333,0.387674808502197,0.00008263465508436
334,0.381314277648926,0.0000866401438196109
335,0.375042915344238,0.0000771371616840673
336,0.368924140930176,0.00007870991382794
337,0.362664222717285,0.0000618731813747903
338,0.356757164001465,0.0000379280424107344
339,0.350743770599365,0.0000539458587103582
340,0.344807147979736,0.0000705928384801838
341,0.339004516601562,0.0000693646476676285
342,0.333221435546875,0.0000660931392250011
343,0.327617645263672,0.0000507568461353692
344,0.321893215179443,0.0000608196402402071
345,0.316323757171631,0.0000547345918742437
346,0.311126708984375,0.0000451134322446472
347,0.305705547332764,0.0000550948143400733
348,0.300308704376221,0.0000605047920538015
349,0.295248508453369,0.0000499508260940328
350,0.290092468261719,0.0000614842640674765
351,0.285082340240479,0.0000578439047868043
352,0.280314922332764,0.0000556195338100104
353,0.275600910186768,0.0000612397044633681
354,0.270863056182861,0.0000857723885795494
355,0.266263961791992,0.0000719487072073993
356,0.261954784393311,0.0000614861130792525
357,0.257259368896484,0.0000718918007598927
358,0.25239896774292,0.000064057885702886
359,0.247933864593506,0.0000556328182832155
360,0.243120193481445,0.0000555244060331561
361,0.238689422607422,0.0000416243607383636
362,0.234370231628418,0.0000492563783059312
363,0.230115413665771,0.0000586635684617893
364,0.225863456726074,0.0000605479929973649
365,0.221770286560059,0.0000792927290068658
366,0.217861652374268,0.0000804852533907776
367,0.213796138763428,0.0000748588779302355
368,0.209599494934082,0.0000822927551452813
369,0.20609712600708,0.0000690393681772688
370,0.202127456665039,0.0000808362051222288
371,0.198723793029785,0.000089812630013958
372,0.195066452026367,0.0000994202616113445
373,0.191500663757324,0.000134088779393911
374,0.188067436218262,0.0000972210043569555
375,0.184505462646484,0.0000908096275786612
376,0.181220054626465,0.0000907620419630822
377,0.177985668182373,0.0000831544397125261
378,0.174846649169922,0.0000766715006042618
379,0.171196937561035,0.0000808404241675498
380,0.16824197769165,0.0000764547084769448
381,0.16512393951416,0.0000947071103396393
382,0.162326812744141,0.0000832623766431402
383,0.159145832061768,0.0000764130616150289
384,0.156187057495117,0.0000832760295704507
385,0.153242111206055,0.0000749408418917738
386,0.150300979614258,0.000094579781873758
387,0.147579669952393,0.0000820215356416493
388,0.144525527954102,0.0000739312909665444
389,0.141236782073975,0.0000681843790159283
390,0.139290332794189,0.0000773388124178906
391,0.13663911819458,0.0000806912174278737
392,0.134159564971924,0.0000622925288065447
393,0.13114070892334,0.0000679589147618098
394,0.128573894500732,0.00005866163048361
395,0.126418590545654,0.0000829436272288949
396,0.123998641967773,0.0000996144665382169
397,0.122134208679199,0.000101715077446846
398,0.119601249694824,0.0000691874120711735
399,0.116658687591553,0.000066110337991647
400,0.114902973175049,0.0000800163441229726
401,0.11277437210083,0.0000957647629628316
402,0.110873222351074,0.0000893608610162543
403,0.109111785888672,0.0000682277161962006
404,0.107193470001221,0.000070769767196085
405,0.105128765106201,0.0000667112055763526
406,0.102435111999512,0.000057474209492948
407,0.101112842559814,0.0000801582977261262
408,0.0998306274414063,0.0000654275491484262
409,0.0973634719848633,0.0000797886930506764
410,0.0957355499267578,0.0000888044399738722
411,0.0944409370422363,0.0000642050211103913
412,0.0928878784179688,0.0000608728904250353
413,0.0908198356628418,0.0000722184004760342
414,0.0889744758605957,0.0000826264000114884
415,0.0877757072448731,0.000073358572439698
416,0.0862607955932617,0.0000710791324394763
417,0.0845785140991211,0.0000550132466501218
418,0.0834469795227051,0.0000721033916609302
419,0.0819921493530273,0.0000722042312073044
420,0.0807647705078125,0.0000545202353174431
421,0.0796675682067871,0.0000488531246113274
422,0.0771269798278809,0.0000516494109079447
423,0.0761709213256836,0.0000558245787769593
424,0.0747165679931641,0.0000550215121719579
425,0.0736842155456543,0.0000607719557873895
426,0.0727171897888184,0.0000474830218677696
427,0.072178840637207,0.0000625293348990841
428,0.0700721740722656,0.0000593801083860237
429,0.070040225982666,0.0000604559190312432
430,0.0680623054504395,0.0000621774444920445
431,0.0663571357727051,0.0000545806732796255
432,0.0657958984375,0.0000775897725522537
433,0.0657773017883301,0.0000653875721604231
434,0.0637378692626953,0.00006277430341395
435,0.0626392364501953,0.0000592641642527051
436,0.0622353553771973,0.0000545733825943855
437,0.061159610748291,0.0000413152638255065
438,0.0605249404907227,0.0000400876576344129
439,0.0592555999755859,0.0000450617421827628
440,0.0585794448852539,0.0000610984533636244
441,0.0584988594055176,0.0000560461178517143
442,0.0560722351074219,0.0000472646417655921
443,0.0563068389892578,0.0000498631240594865
444,0.0548772811889648,0.0000513215028651188
445,0.0543546676635742,0.0000607045727924055
446,0.053682804107666,0.0000378567863971401
447,0.0525627136230469,0.0000424177408309443
448,0.0521144866943359,0.0000660156893262536
449,0.051361083984375,0.0000657222771394531
450,0.050389289855957,0.0000630886375556944
451,0.0499119758605957,0.00004687578478792
452,0.0491852760314941,0.0000493128934343278
453,0.048492431640625,0.0000675814694914827
454,0.0479960441589356,0.0000444495618961983
455,0.0473461151123047,0.0000564443083074863
456,0.0465850830078125,0.0000572333718670578
457,0.0461935997009277,0.0000581272123629409
458,0.0454587936401367,0.0000472405823892479
459,0.0445914268493652,0.000062080462295015
460,0.0439057350158691,0.0000550814001118051
461,0.04339599609375,0.0000522892765985997
462,0.0428218841552734,0.0000610761206964037
463,0.0429863929748535,0.0000636305197104159
464,0.0419888496398926,0.0000659312515209875
465,0.0411992073059082,0.000062139035689146
466,0.0400824546813965,0.0000578596259095099
467,0.0401921272277832,0.0000499121195201503
468,0.0393662452697754,0.0000483936861281024
469,0.0388598442077637,0.0000570911695227794
470,0.0387554168701172,0.0000423916011005197
471,0.0382452011108398,0.0000663043740238522
472,0.037935733795166,0.0000686281160540715
473,0.0372257232666016,0.0000691693348144717
474,0.036689281463623,0.0000690591256998073
475,0.0365047454833984,0.000104813102724398
476,0.0356001853942871,0.0000748786181947468
477,0.0353884696960449,0.0000474554798566772
478,0.0349516868591309,0.0000424244407316085
479,0.0345077514648437,0.0000517549570916545
480,0.0339899063110352,0.0000419874004023719
481,0.0334281921386719,0.0000526089922383307
482,0.0328664779663086,0.0000652657523955214
483,0.0328788757324219,0.0000821115801694144
484,0.0317649841308594,0.0000660518439137375
485,0.0397543907165527,0.0000760790659911313
486,0.0266742706298828,0.0000535312098836842
487,0.0300898551940918,0.000052656512277139
488,0.0299453735351562,0.0000557512165186463
489,0.0302896499633789,0.0000700285329844888
490,0.0296854972839355,0.0000934868404465942
491,0.0294337272644043,0.0000787243562790842
492,0.0290188789367676,0.0000503486753303063
493,0.0288772583007812,0.000047259830870189
494,0.0282607078552246,0.0000597579890865956
495,0.0282597541809082,0.0000483513818924269
496,0.0276775360107422,0.0000526262772171497
497,0.0269842147827148,0.0000715954756894053
498,0.0270657539367676,0.0000728859283610744
499,0.0267534255981445,0.0000712739970589042
500,0.0261106491088867,0.0000978945640604285
501,0.0260777473449707,0.0000843220149473749
502,0.0255804061889648,0.0000804499327003547
503,0.02532958984375,0.0000597351552736608
504,0.0248117446899414,0.0000707922536754148
505,0.0249199867248535,0.0000946927043904614
506,0.024071216583252,0.0000611058957722474
507,0.0239548683166504,0.0000490748608790154
508,0.0238637924194336,0.0000493186566428362
509,0.0235257148742676,0.0000593111441435753
510,0.0233221054077148,0.0000675326675175825
511,0.0230035781860352,0.000062951535241804
512,0.0226593017578125,0.000045047864026287
513,0.0222930908203125,0.0000667520929833741
514,0.0220060348510742,0.0000704638840162381
515,0.0218172073364258,0.0000659071065642204
516,0.0215811729431152,0.0000460203444132699
517,0.0211806297302246,0.0000529589868350242
518,0.0210909843444824,0.0000498460212896267
519,0.0207204818725586,0.0000601334952203133
520,0.0204625129699707,0.0000653545292477967
521,0.0203108787536621,0.0000668610038280116
522,0.0200777053833008,0.0000675865159603196
523,0.0199079513549805,0.0000424840232989812
524,0.019627571105957,0.0000452668925716622
525,0.0193219184875488,0.0000468879096128268
526,0.0190424919128418,0.0000852485625363653
527,0.0188536643981934,0.0000890805325139494
528,0.0187544822692871,0.0000807630399838936
529,0.0183596611022949,0.0000582317551574967
530,0.0182003974914551,0.000049314046129912
531,0.0180401802062988,0.0000456433051087299
532,0.0179500579833984,0.0000525051628691071
533,0.0176715850830078,0.0000547999800950373
534,0.0172924995422363,0.0000635500686327142
535,0.0170440673828125,0.0000481239500792177
536,0.0168895721435547,0.0000350394207140271
537,0.0169811248779297,0.0000412415904052341
538,0.0166850090026855,0.0000697829635868791
539,0.0164012908935547,0.0000599356045963301
540,0.0161385536193848,0.0000565398990969574
541,0.0160741806030273,0.0000565539725008087
542,0.0159010887145996,0.0000739712613083039
543,0.0156726837158203,0.0000648551125357466
544,0.0155167579650879,0.0000507322019941937
545,0.0152931213378906,0.0000484817013923234
546,0.0152544975280762,0.00004968839959991
547,0.0153546333312988,0.0000384874349897963
548,0.0147919654846191,0.0000366986528781252
549,0.0145940780639648,0.0000524650904403658
550,0.0142960548400879,0.0000620694736300391
551,0.0144400596618652,0.0000581233005750322
552,0.0142993927001953,0.0000599005032143464
553,0.0140676498413086,0.0000546930349690997
554,0.013862133026123,0.0000478134773860255
555,0.0139889717102051,0.0000499622046736683
556,0.0135378837585449,0.0000419135522223215
557,0.0134525299072266,0.0000332087212840021
558,0.013237476348877,0.0000508944094243101
559,0.0132532119750977,0.0000586500012697607
560,0.0130996704101562,0.0000564775318684818
561,0.0128717422485352,0.0000499405831557543
562,0.0127682685852051,0.0000503768923064894
563,0.0126419067382812,0.0000467227424059255
564,0.0125794410705566,0.0000484934246911025
565,0.012298583984375,0.000043494240764585
566,0.012298583984375,0.000054492077538399
567,0.0123348236083984,0.0000418321007078293
568,0.0121197700500488,0.0000347919617820109
569,0.0122509002685547,0.0000400060408119188
570,0.0119967460632324,0.0000545087653855271
571,0.011929988861084,0.0000442817183160549
572,0.0108628273010254,0.0000479179826522724
573,0.0120887756347656,0.0000357413227519483
574,0.0113844871520996,0.0000448100092372138
575,0.0107183456420898,0.0000459065671864669
576,0.0117006301879883,0.0000476228802752261
577,0.0113420486450195,0.0000448417115951457
578,0.0103292465209961,0.0000433371267986365
579,0.0106072425842285,0.0000467470683004283
580,0.011298656463623,0.0000353028604864141
581,0.0114789009094238,0.000037216216142462
582,0.00960779190063477,0.0000266101196680715
583,0.00960159301757813,0.0000290689842112748
584,0.0111589431762695,0.0000451801634712803
585,0.010380744934082,0.0000335611731726844
586,0.00928735733032227,0.0000421353830085786
587,0.0106983184814453,0.0000354017471185123
588,0.00917768478393555,0.0000474937948287414
589,0.00942373275756836,0.0000508731841025563
590,0.00974655151367188,0.0000586209181420019
591,0.00933170318603516,0.0000508530677309993
592,0.0106215476989746,0.0000345978137224145
593,0.00928068161010742,0.0000377763686780583
594,0.00942564010620117,0.000039972636399898
595,0.00923681259155273,0.0000444303753101202
596,0.00862884521484375,0.0000387178853012045
597,0.00951528549194336,0.0000487692765168188
598,0.00900888442993164,0.0000415820047004477
599,0.00929927825927734,0.000040119549454881
600,0.00883817672729492,0.0000396434968773394
601,0.00856447219848633,0.0000357452985601357
602,0.00870418548583984,0.0000423352453244489
603,0.00862312316894531,0.0000440990594691765
604,0.00803709030151367,0.0000288747440878859
605,0.00886201858520508,0.0000336862757026999
606,0.00798416137695313,0.0000321608900621743
607,0.00828218460083008,0.0000346937947532064
608,0.00782251358032227,0.000037139768470958
609,0.00800132751464844,0.0000354923513644048
610,0.00824546813964844,0.0000324853516396375
611,0.0075526237487793,0.0000335527034758498
612,0.00797700881958008,0.0000479334016146764
613,0.00799560546875,0.0000410807042607418
614,0.00757408142089844,0.0000452907453351247
615,0.00788784027099609,0.0000489345058514991
616,0.00727939605712891,0.00003543224165869
617,0.00747919082641602,0.0000380970210616658
618,0.00720405578613281,0.0000427128730986061
619,0.0072178840637207,0.0000467044896703159
620,0.00722742080688477,0.0000398694038709339
621,0.00686836242675781,0.0000305240966868391
622,0.00739192962646484,0.0000356983558086427
623,0.00693702697753906,0.0000323556060854916
624,0.00705289840698242,0.0000444661835741988
625,0.00666570663452148,0.0000386738159103234
626,0.00660133361816406,0.0000408823561547563
627,0.00679588317871094,0.0000256496730952851
628,0.0064544677734375,0.000030818771645626
629,0.006805419921875,0.0000421279624913447
630,0.00632238388061523,0.000028573449653442
631,0.00641965866088867,0.0000373747264215472
632,0.0062861442565918,0.0000379115529343699
633,0.00624847412109375,0.0000458346929111317
634,0.00616359710693359,0.0000386098259465734
635,0.00622272491455078,0.0000431195012438475
636,0.00626325607299805,0.0000438002897998663
637,0.00617361068725586,0.0000526467957586499
638,0.00616264343261719,0.0000471598940451309
639,0.0057682991027832,0.0000499940509191817
640,0.00565099716186523,0.0000612007071493162
641,0.00557374954223633,0.0000558581709445427
642,0.00547647476196289,0.0000428855315606726
643,0.00557136535644531,0.0000398515781312624
644,0.00558614730834961,0.0000452606134393448
645,0.00550174713134766,0.0000491223282290376
646,0.00539207458496094,0.0000487284649117297
647,0.00544595718383789,0.0000429874714742099
648,0.00548887252807617,0.0000359735635402604
649,0.0052485466003418,0.0000337840051992976
650,0.00511980056762695,0.0000312328338623047
651,0.00520467758178711,0.0000406459976599237
652,0.00512123107910156,0.0000441776181246452
653,0.00521659851074219,0.0000462642636792683
654,0.00455904006958008,0.0000460734265486952
655,0.0113859176635742,0.0000310923788823847
656,0.00635433197021484,0.0000382979207903697
657,-0.00343656539916992,0.0000512716368827535
658,0.005218505859375,0.0000392414094667774
659,0.00438928604125977,0.0000360225147061463
660,0.00468301773071289,0.0000458731224817661
661,0.0047307014465332,0.000046294970188217
662,0.004669189453125,0.0000372116337111028
663,0.00458669662475586,0.000032801405948486
664,0.00463199615478516,0.0000532533394912067
665,0.0045933723449707,0.0000658518848481448
666,0.00438976287841797,0.0000480648544088189
667,0.00425052642822266,0.0000456570022719796
668,0.00425910949707031,0.0000417266571834667
669,0.00424623489379883,0.0000447312904341071
670,0.00418615341186523,0.0000446282389305806
671,0.00426340103149414,0.0000493509181729193
672,0.00412702560424805,0.0000412959974966473
673,0.00388097763061523,0.0000413393341096749
674,0.00414037704467773,0.0000384645356934035
675,0.00404024124145508,0.0000427288400309474
676,0.00400686264038086,0.0000487319643885493
677,0.003997802734375,0.0000402023497879086
678,0.00401020050048828,0.000043954455067048
679,0.00391721725463867,0.0000420002597314285
680,0.00378131866455078,0.000037459041559803
681,0.00382661819458008,0.0000392080785001215
682,0.00366735458374023,0.0000546389637398957
683,0.00378847122192383,0.0000430158920720822
684,0.00378513336181641,0.0000486957910008398
685,0.00374984741210937,0.0000553973148939306
686,0.00360965728759766,0.000056972562727947
687,0.00356006622314453,0.0000409809566779812
688,0.00346469879150391,0.0000455160987322179
689,0.00348997116088867,0.000052896696021627
690,0.00343704223632812,0.0000406788491289636
691,0.00352907180786133,0.0000426982314987717
692,0.00330066680908203,0.0000397351582641595
693,0.00333642959594727,0.0000482607733506494
694,0.00320196151733398,0.0000425542100696131
695,0.0032801628112793,0.0000400443859493861
696,0.0033106803894043,0.0000323564844904134
697,0.00334930419921875,0.0000464775602151019
698,0.00316333770751953,0.0000503780206568039
699,0.00313806533813477,0.0000401542472969774
700,0.00308895111083984,0.00004753207891563
701,0.00303220748901367,0.0000432162859358681
702,0.00314569473266602,0.0000394090838527743
703,0.00298213958740234,0.0000453885358472093
704,0.00294208526611328,0.0000400834034745147
705,0.00292253494262695,0.000049064435070173
706,0.00306797027587891,0.0000399171375988724
707,0.00288867950439453,0.0000536097309972961
708,0.00271463394165039,0.0000593168942262345
709,0.00268411636352539,0.000050436660088262
710,0.00273609161376953,0.0000482902103468787
711,0.00269174575805664,0.0000412491703766338
712,0.00254964828491211,0.0000457515251781883
713,0.00271463394165039,0.0000519971189076421
714,0.00269126892089844,0.0000468163277546951
715,0.00256156921386719,0.0000506065548457395
716,0.00242471694946289,0.0000564402798802387
717,0.00248289108276367,0.0000449682975278627
718,0.00264453887939453,0.0000539268885521772
719,0.00245761871337891,0.0000561747768543756
720,0.00242233276367187,0.0000430139098490295
721,0.00242900848388672,0.0000347306399052241
722,0.00230598449707031,0.0000434746325702917
723,0.00240230560302734,0.0000579224677306018
724,0.00226926803588867,0.0000477551878301784
725,0.00223636627197266,0.0000538699379958987
726,0.00216054916381836,0.0000426749276913572
727,0.0021367073059082,0.0000460943956482703
728,0.00217390060424805,0.0000506088012803138
729,0.00214910507202148,0.0000409767952593832
730,0.00217819213867187,0.0000410682490620069
731,0.00214910507202148,0.0000596427795488219
732,0.00194215774536133,0.0000618878789654424
733,0.00200223922729492,0.0000503068851601935
734,0.00201702117919922,0.0000360564256792814
735,0.00191402435302734,0.0000508239966932239
736,0.00196218490600586,0.0000479061185349665
737,0.00178718566894531,0.0000346068489172066
738,0.00174903869628906,0.0000331041428255969
739,0.00185537338256836,0.0000559171628201718
740,0.00160694122314453,0.0000455098539836418
741,0.00159406661987305,0.00005306514188737
742,0.00166034698486328,0.0000543657098462494
743,0.00159645080566406,0.0000533983106183693
744,0.00153970718383789,0.0000630381608688052
745,0.00137662887573242,0.0000425635595611177
746,0.00137233734130859,0.0000442971197604889
747,0.00145387649536133,0.0000332155673844272
748,0.00130224227905273,0.0000331221675621266
749,0.00141334533691406,0.0000496712366690675
750,0.00132942199707031,0.0000463084746017707
751,0.00121164321899414,0.0000676621678270027
752,0.00104045867919922,0.0000561514982647062
753,0.00115823745727539,0.0000532447994856206
754,0.00122261047363281,0.0000367040737112538
755,0.00122404098510742,0.0000314748646368203
756,0.0011749267578125,0.0000317258005063439
757,0.0011444091796875,0.0000498243493533956
758,0.0009613037109375,0.0000484711479991439
759,0.000933647155761719,0.0000474638638997242
760,0.000969886779785156,0.0000471080361756457
761,0.000761985778808594,0.0000447909770520063
762,0.000723361968994141,0.0000413517076572519
763,0.000710964202880859,0.0000442162023278643
764,0.000833511352539063,0.0000425842547016793
765,0.000844478607177734,0.0000297024962322895
766,0.000446319580078125,0.0000400826944039679
767,0.000549793243408203,0.0000499758555495169
768,0.000815868377685547,0.0000381365404169365
769,0.000680446624755859,0.0000331127272571458
770,0.000631332397460938,0.0000382659962610986
771,0.000542640686035156,0.0000461313766899594
772,0.000419139862060547,0.0000437288532947936
773,0.000325679779052734,0.0000363516018664543
774,0.000293254852294922,0.0000308132378245467
775,0.000347614288330078,0.000050481720992531
776,0.000330448150634766,0.0000414882581765507
777,0.000290393829345703,0.0000323010983279227
778,0.000365734100341797,0.0000372559069376013
779,0.000433444976806641,0.0000651559198707269
780,0.000300407409667969,0.0000611821282632594
781,0.000343799591064453,0.0000643800802240466
782,0.000202178955078125,0.0000483290397275862
783,0.000138282775878906,0.0000415758526567804
784,0.000123500823974609,0.0000401492922983057
785,0.0000147819519042969,0.0000485754085614536
786,0.0000276565551757812,0.0000576657611009971
787,0.0000314712524414062,0.0000514829577107003
788,0.0000314712524414062,0.0000399818787102813
789,-0.0000219345092773437,0.0000411581185851703
790,-0.0000424385070800781,0.0000411919416026378
791,-0.0000462532043457031,0.0000527568115137809
792,-0.0001983642578125,0.000048297272556244
793,-0.000171184539794922,0.0000406271135260836
794,-0.000206470489501953,0.0000387743676344246
795,-0.000233173370361328,0.0000387296286697794
796,-0.000538825988769531,0.0000591902633721716
797,-0.000367641448974609,0.0000558439221898109
798,-0.000502109527587891,0.0000693597305720539
799,-0.000486373901367188,0.0000559720303999647
800,-0.000494956970214844,0.0000356593224825749
801,-0.000439167022705078,0.0000366816107587192
802,-0.000440597534179688,0.0000425809174560999
803,-0.000471115112304688,0.0000661189356973252
804,-0.000602245330810547,0.0000585753255427434
805,-0.000536918640136719,0.0000562293930598212
806,-0.000521659851074219,0.000070615381300008
807,-0.000628948211669922,0.0000550308094000843
808,-0.000635623931884766,0.0000552997490760469
809,-0.000592708587646484,0.0000617922821371585
810,-0.000766754150390625,0.0000435791076565319
811,-0.000713825225830078,0.0000415908893792048
812,-0.000716209411621094,0.0000451348473480706
813,-0.000700950622558594,0.0000388380864988274
814,-0.000773906707763672,0.0000477432832586784
815,-0.000821590423583984,0.0000428987841974415
816,-0.00072479248046875,0.0000366110340845196
817,-0.000810623168945313,0.000040196693659037
818,-0.000878810882568359,0.0000430442939048608
819,-0.000889301300048828,0.0000539448049876928
820,-0.000833988189697266,0.0000497649884248724
821,-0.000906467437744141,0.0000440126121462771
822,-0.000909805297851563,0.0000439932349955398
823,-0.000914573669433594,0.00003778690035402
824,-0.000948429107666016,0.0000418592688228594
825,-0.000926971435546875,0.0000552678745376044
826,-0.000837326049804688,0.0000433567971802222
827,-0.0009307861328125,0.0000416209465267565
828,-0.000970363616943359,0.0000422310580823859
829,-0.000889778137207031,0.0000503577064829046
830,-0.000996589660644531,0.0000621426946931645
831,-0.00100803375244141,0.0000501994267391306
832,-0.00102996826171875,0.000046114122561129
833,-0.000929832458496094,0.0000429583704685843
834,-0.000838756561279297,0.0000366420735424769
835,-0.000849246978759766,0.0000507310815215085
836,-0.000847816467285156,0.0000586461243526974
837,-0.00103425979614258,0.0000506335054826363
838,-0.00101280212402344,0.0000412719019380374
839,-0.000931739807128906,0.0000347118128249238
840,-0.0010223388671875,0.0000362458976535414
841,-0.00110149383544922,0.0000445555783297093
842,-0.00103378295898437,0.000053897366145877
843,-0.00102472305297852,0.0000648796489931978
844,-0.0010685920715332,0.0000563031418575335
845,-0.00107192993164062,0.0000462618062780672
846,-0.00110197067260742,0.0000430528768169239
847,-0.00112152099609375,0.0000447579687596812
848,-0.00111484527587891,0.0000603966545028429
849,-0.00114583969116211,0.000055458846974316
850,-0.00120830535888672,0.0000436038837038205
851,-0.00121545791625977,0.0000402899182477217
852,-0.00105524063110352,0.0000370562608666948
853,-0.0010986328125,0.0000529911774895021
854,-0.0011906623840332,0.0000534717118549485
855,-0.00117731094360352,0.0000652622684895539
856,-0.00127935409545898,0.0000477599488279301
857,-0.00124216079711914,0.0000416291401641861
858,-0.00130510330200195,0.0000479559281035262
859,-0.00122356414794922,0.0000392247475237954
860,-0.00123453140258789,0.0000394904950139431
861,-0.00134134292602539,0.0000436064908899094
862,-0.00118303298950195,0.0000494602201177242
863,-0.0012664794921875,0.0000393058173966386
864,-0.00128936767578125,0.0000290538253949975
865,-0.00125408172607422,0.0000468733594465764
866,-0.00126123428344727,0.0000463771633765505
867,-0.00131607055664062,0.0000547283603501301
868,-0.00141286849975586,0.0000564030032885128
869,-0.00130558013916016,0.0000569246513874193
870,-0.00142431259155273,0.0000492171255899252
871,-0.00139474868774414,0.0000514221951939731
872,-0.00137948989868164,0.0000366575834155704
873,-0.00133228302001953,0.0000492367558595785
874,-0.0013432502746582,0.000052072495297405
875,-0.00144004821777344,0.0000507814783167979
876,-0.00140666961669922,0.0000556757156875202
877,-0.00135278701782227,0.0000551370993752277
878,-0.0013737678527832,0.0000589911357973269
879,-0.00135612487792969,0.0000569046764231622
880,-0.00142478942871094,0.0000551247266248194
881,-0.00146770477294922,0.0000479547427626595
882,-0.00149679183959961,0.000048094411320693
883,-0.0014796257019043,0.0000641908540711389
884,-0.00150012969970703,0.0000445440947686151
885,-0.00142908096313477,0.0000515480596925562
886,-0.00151252746582031,0.000052217479026809
887,-0.00162076950073242,0.0000490690690364725
888,-0.00143003463745117,0.0000480376459880515
889,-0.00156927108764648,0.0000503622214518904
890,-0.00163650512695312,0.0000674248416150308
891,-0.00152015686035156,0.0000726390632671956
892,-0.00149297714233398,0.0000690294872953857
893,-0.00158023834228516,0.0000778121687358592
894,-0.0015263557434082,0.0000634551843305509
895,-0.00162696838378906,0.0000653493104185101
896,-0.00163698196411133,0.0000658536112276978
897,-0.00161886215209961,0.0000802121742257192
898,-0.0015411376953125,0.0000687257838076967
899,-0.0017390251159668,0.0000613769260776676
900,-0.00156402587890625,0.0000592267454609863
901,-0.00157499313354492,0.0000676588073180321
902,-0.00158071517944336,0.0000652326477764017
903,-0.00159978866577148,0.0000491905545208313
904,-0.00156497955322266,0.0000566122393322334
905,-0.00172328948974609,0.0000590373701215536
906,-0.00162601470947266,0.0000490377812659547
907,-0.00165605545043945,0.0000511128509363618
908,-0.00171709060668945,0.0000614805658770989
909,-0.001617431640625,0.0000598634821795457
910,-0.00162696838378906,0.0000471201012382525
911,-0.00170516967773437,0.0000491477796148633
912,-0.0016932487487793,0.0000590132942643119
913,-0.00171136856079102,0.0000538139834734684
914,-0.00174999237060547,0.0000632703795614784
915,-0.00159263610839844,0.0000620896180302311
916,-0.00170230865478516,0.0000379916845074503
917,-0.00168609619140625,0.0000391449619010008
918,-0.00178098678588867,0.0000487027943985127
919,-0.00169658660888672,0.0000630056902157526
920,-0.00171709060668945,0.0000480636717542807
921,-0.00166511535644531,0.0000765735746999581
922,-0.001556396484375,0.000068986653786818
923,-0.0016627311706543,0.0000592219464701377
924,-0.00175762176513672,0.0000545546306441001
925,-0.00178194046020508,0.0000643818460696035
926,-0.00163936614990234,0.0000679338169873538
927,-0.00179004669189453,0.0000661172162456314
928,-0.00165176391601562,0.0000544231860805784
929,-0.00162744522094727,0.000057176732203955
930,-0.00170135498046875,0.0000607485673846008
931,-0.00163650512695312,0.0000997011652039595
932,-0.00169897079467773,0.0000884838128711249
933,-0.0015864372253418,0.0000689157553296649
934,-0.00158166885375977,0.0000861229160365212
935,-0.00156736373901367,0.0000758905474942504
936,-0.00174140930175781,0.0000869440349522938
937,-0.00172090530395508,0.0000951167626966257
938,-0.00154447555541992,0.0000876057705913877
939,-0.00165081024169922,0.0000921715249372653
940,-0.00152015686035156,0.0000623837144524624
941,-0.00162267684936523,0.0000778443050212254
942,-0.00132989883422852,0.0000865429885611773
943,-0.00149393081665039,0.0000677209497400176
944,-0.0015869140625,0.0000679488767644489
945,-0.00153303146362305,0.0000731164130481062
946,-0.00137996673583984,0.000103245981288037
947,-0.00146102905273437,0.0000991660802034637
948,-0.00144147872924805,0.0000804485195501829
949,-0.00153732299804687,0.0000921542553429017
950,-0.00141048431396484,0.0000863246479226906
951,-0.00135087966918945,0.0000793041982669253
952,-0.00132131576538086,0.0000831229886936757
953,-0.00130319595336914,0.0000803863163485966
954,-0.00126409530639648,0.0000673083983111053
955,-0.00122213363647461,0.0000856397412133928
956,-0.001129150390625,0.000109248793912638
957,-0.00109148025512695,0.000123359901710664
958,-0.000923633575439453,0.000132684169900627
959,-0.00109195709228516,0.000129432964914883
960,-0.00105619430541992,0.000137801813770055
961,-0.000968456268310547,0.000142382010459603
962,-0.00104141235351562,0.000121000188880599
963,-0.00106525421142578,0.000126774133304193
964,-0.00104236602783203,0.000131364959069912
965,-0.00117063522338867,0.000110142158502538
966,-0.00120973587036133,0.000106781716956262
967,-0.00124311447143555,0.000136315392571502
968,-0.00116348266601562,0.000139588733394867
969,-0.00140190124511719,0.000147785675112222
970,-0.00127744674682617,0.000152826123230058
971,-0.00129222869873047,0.000148393684903793
972,-0.00136518478393555,0.000118153666573931
973,-0.00150871276855469,0.000110921793735876
974,-0.00162839889526367,0.000149745089643072
975,-0.00168323516845703,0.00018164429193046
976,-0.00177288055419922,0.000149096846045562
977,-0.00161886215209961,0.00014895342644515
978,-0.00184869766235352,0.000142353262871641
979,-0.00187206268310547,0.000176916224995939
980,-0.00202226638793945,0.000175310139359681
981,-0.00196504592895508,0.000133128972254161
982,-0.00190639495849609,0.0000921789252015534
983,-0.00229406356811523,0.0000886840201703858
984,-0.00222301483154297,0.0000924769089057958
985,-0.00232458114624023,0.000138246597292868
986,-0.00227499008178711,0.000149902920574296
987,-0.00224161148071289,0.000212213429483123
988,-0.00272798538208008,0.000159232199306628
989,-0.00242042541503906,0.000131972813635808
990,-0.00263357162475586,0.000206544809863044
991,-0.00308036804199219,0.000153867009400492
992,-0.00283479690551758,0.000152873725200759
993,-0.00298166275024414,0.00017948849914744
994,-0.00305747985839844,0.000150701666208346
995,-0.00297021865844727,0.000116127226310362
996,-0.0031895637512207,0.00015813174042723
997,-0.00286293029785156,0.000142046259925534
998,-0.00302648544311523,0.000161154029453582
999,-0.0032958984375,0.000154671744786936
1000,-0.00313615798950195,0.000196308709698583
1001,-0.00309562683105469,0.000202030451234871
1002,-0.00329399108886719,0.00018198445007846
1003,-0.00364971160888672,0.000266783465345854
1004,-0.00362682342529297,0.000183888588585365
1005,-0.00406217575073242,0.000193052515884282
1006,-0.00351142883300781,0.00018131352815023
1007,-0.00347757339477539,0.000237164057851195
1008,-0.00388479232788086,0.000225809457198315
1009,-0.00397920608520508,0.000250858042336841
1010,-0.00377368927001953,0.000258162297297495
1011,-0.00407600402832031,0.000218018375610995
1012,-0.00405693054199219,0.000322087881894099
1013,-0.00432968139648438,0.000252102141521829
1014,-0.00432109832763672,0.000251017515203279
1015,-0.00418519973754883,0.000270076794786573
1016,-0.00420475006103516,0.000301560203343995
1017,-0.00462245941162109,0.000261306762695312
1018,-0.00458526611328125,0.0002160572263619
1019,-0.00412368774414063,0.000262979043124758
1020,-0.00488567352294922,0.000284367707245451
1021,-0.00517988204956055,0.00031458534213996
1022,-0.00469684600830078,0.000305354542828104
1023,-0.00459194183349609,0.000255242873509523
1024,-0.00491809844970703,0.0003569138073949
1025,-0.00471258163452148,0.000343545205845853
1026,-0.00533819198608398,0.000179427683074151
1027,-0.00524711608886719,0.000255406730510301
1028,-0.00492715835571289,0.000228157486729398
1029,-0.00558185577392578,0.000197620096382249
1030,-0.0051116943359375,0.00034099958447346
1031,-0.00535964965820313,0.0003721529970133
1032,-0.0056004524230957,0.000372446146327771
1033,-0.00592517852783203,0.000355841945756306
1034,-0.0057215690612793,0.000397379048391612
1035,-0.00611495971679688,0.000371164359101125
1036,-0.00627565383911133,0.000348883211014337
1037,-0.00611352920532227,0.000295817413662185
1038,-0.00577640533447266,0.000412596146733158
1039,-0.00627517700195313,0.000404960255662306
1040,-0.00636100769042969,0.000303400358859118
1041,-0.00651216506958008,0.000415591965568977
1042,-0.00680875778198242,0.000463983872444355
1043,-0.00637674331665039,0.000401513876295032
1044,-0.00628995895385742,0.000452504142719545
1045,-0.00670766830444336,0.000458430757833802
1046,-0.0067296028137207,0.000608034504195188
1047,-0.00633382797241211,0.000589145382759643
1048,-0.00711441040039063,0.000555218670613411
1049,-0.00640678405761719,0.000566582076964823
1050,-0.00736618041992188,0.000503756736597626
1051,-0.00713300704956055,0.000506091157731969
1052,-0.00739908218383789,0.000532748115542483
1053,-0.0074915885925293,0.00067291303016147
1054,-0.00805950164794922,0.000494544274300251
1055,-0.00754451751708984,0.000528676305305281
1056,-0.00836467742919922,0.000794208610812543
1057,-0.00779104232788086,0.000796312914620449
1058,-0.00844478607177734,0.000668628401764303
1059,-0.00885009765625,0.000518167335788929
1060,-0.00806713104248047,0.000584010093339544
1061,-0.00794029235839844,0.000870871240696364
1062,-0.00914239883422852,0.00109963900795505
1063,-0.00786733627319336,0.000789411944259512
1064,-0.00744771957397461,0.000895373728540874
1065,-0.00602960586547852,0.000770342198644732
1066,-0.00590419769287109,0.000716615021060169
1067,-0.0060577392578125,0.00106464913514639
1068,-0.00810098648071289,0.000885617935104364
1069,-0.00835371017456055,0.000884236622867517
1070,-0.00658655166625977,0.000779113978719478
1071,-0.00825881958007813,0.000447296638121522
1072,-0.00627851486206055,0.00127948835992801
1073,-0.00727701187133789,0.00107531166832971
1074,-0.00501871109008789,0.00127145639585073
1075,-0.00727558135986328,0.00137095782972922
1076,-0.00624370574951172,0.00112001486612729
1077,-0.00762557983398438,0.0014006122190334
1078,-0.00748062133789063,0.00119706148395466
1079,-0.00644111633300781,0.000963752896336089
1080,-0.00572919845581055,0.000998139431239398
1081,-0.00614070892333984,0.00133235094283676
1082,-0.00811624526977539,0.00117871059142758
1083,-0.00651359558105469,0.00139269367664198
1084,-0.00532150268554688,0.00169296935098635
1085,-0.00758886337280273,0.00164150815989633
1086,-0.0063939094543457,0.00125547013101698
1087,-0.0105876922607422,0.0019625792564801
1088,-0.0102133750915527,0.00153124818266547
1089,-0.00886106491088867,0.00158257992966696
1090,-0.0107474327087402,0.00138104685841994
1091,-0.00876331329345703,0.0019745839963465
1092,-0.00698328018188477,0.00186859432396528
1093,-0.00736474990844727,0.0023067029933266
1094,-0.0103750228881836,0.00242552359375166
1095,-0.0122790336608887,0.00222621496734171
1096,-0.0105710029602051,0.00229420346317396
1097,-0.0079188346862793,0.00204746568688902
1098,-0.0107836723327637,0.0020355476252017
1099,-0.0131740570068359,0.00223539957817374
1100,-0.0117073059082031,0.00207401690964786
