Wavelength (nm),Absorbance (AU),Std.Dev.
190,0.244985103607178,0.0000672120538572222
191,0.246709823608398,0.0000568667046609118
192,0.247498512268066,0.000073471616483495
193,0.247974395751953,0.0000493324855962745
194,0.247923374176025,0.0000437574418917223
195,0.247475147247314,0.0000561606084271778
196,0.246861934661865,0.0000406313107587541
197,0.246070384979248,0.0000402828633319367
198,0.244803428649902,0.0000416148002399792
199,0.24288272857666,0.0000428059295773161
200,0.240718841552734,0.0000617168033117807
201,0.238287448883057,0.000062052986983957
202,0.235641479492187,0.0000509758771361806
203,0.23251485824585,0.0000536828431568713
204,0.228931903839111,0.0000505559836780709
205,0.2248854637146,0.0000622121748807635
206,0.220080375671387,0.0000573415270165051
207,0.214625835418701,0.0000618566424109708
208,0.208494663238525,0.000043519065127877
209,0.201961040496826,0.0000526111531712448
210,0.194580554962158,0.0000543594360351563
211,0.186646461486816,0.0000699586904102383
212,0.178391456604004,0.0000418321007078293
213,0.169602394104004,0.0000325683618860801
214,0.160686492919922,0.0000378455231835389
215,0.151546478271484,0.0000303363635156965
216,0.142336845397949,0.0000332395176318419
217,0.133121013641357,0.0000418069544828624
218,0.124256134033203,0.0000347911448679408
219,0.115493774414062,0.0000318902117716191
220,0.107117176055908,0.0000399712143163143
221,0.099022388458252,0.0000305901350321737
222,0.0916199684143066,0.0000373572319163465
223,0.0845141410827637,0.000034350483092857
224,0.07806396484375,0.0000324940995465255
225,0.0720939636230469,0.0000282196363642498
226,0.0666036605834961,0.000034898812193421
227,0.0617351531982422,0.0000318902117716191
228,0.0571799278259277,0.0000320901133697343
229,0.0531702041625977,0.000032338911858644
230,0.0496091842651367,0.0000387479705580889
231,0.0465068817138672,0.0000344075265692559
232,0.0437407493591309,0.0000318125797350329
233,0.0413122177124023,0.0000349508951433116
234,0.0391459465026855,0.0000297832427939422
235,0.037259578704834,0.0000318545423775681
236,0.0355887413024902,0.0000242906296290398
237,0.0342202186584473,0.000028844214327248
238,0.0330257415771484,0.0000338789361349709
239,0.0319552421569824,0.0000259306922719872
240,0.0310306549072266,0.000014334638249864
241,0.030186653137207,0.0000211840643185241
242,0.0294923782348633,0.0000255102309050303
243,0.0288596153259277,0.0000293530938979641
244,0.028287410736084,0.0000338378040970932
245,0.0278420448303223,0.0000269855709412607
246,0.0273590087890625,0.0000364031677729015
247,0.0269966125488281,0.0000286727460663234
248,0.0266208648681641,0.0000311690691511644
249,0.0262703895568848,0.0000350394207140271
250,0.0259461402893066,0.0000249998678071422
251,0.0257143974304199,0.0000227049106064892
252,0.0253911018371582,0.000027563394471366
253,0.0252323150634766,0.0000248562088742053
254,0.0249876976013184,0.0000280944708544537
255,0.0247759819030762,0.0000405087128365467
256,0.0245394706726074,0.000033124741723826
257,0.0243706703186035,0.0000233972337112534
258,0.0241670608520508,0.0000195423261055673
259,0.0239720344543457,0.0000248527783022651
260,0.0238003730773926,0.0000285863776918828
261,0.0235352516174316,0.0000235630663056178
262,0.0234065055847168,0.0000400968734324647
263,0.0232205390930176,0.0000494004216432634
264,0.0229659080505371,0.0000484394740241513
265,0.0227704048156738,0.0000505998149436193
266,0.022524356842041,0.0000461892541256497
267,0.022280216217041,0.0000314251605543841
268,0.02203369140625,0.0000366878088089909
269,0.0219030380249023,0.000042242497616482
270,0.0216064453125,0.0000491003368697669
271,0.0213274955749512,0.000055469095684875
272,0.0212106704711914,0.0000366327644666077
273,0.020939826965332,0.0000442072023592828
274,0.0206427574157715,0.0000435269014591061
275,0.0203404426574707,0.0000449619766954899
276,0.0201044082641602,0.0000370961228055076
277,0.0198869705200195,0.0000331547588428917
278,0.0196404457092285,0.0000358976364900883
279,0.0194354057312012,0.0000352036960844076
280,0.019132137298584,0.0000467288250667517
281,0.0188250541687012,0.0000299312663105951
282,0.0186080932617187,0.0000252987840550345
283,0.0183172225952148,0.0000409920517288943
284,0.0180706977844238,0.0000337663337587913
285,0.0177969932556152,0.0000391130020811613
286,0.0175065994262695,0.0000408767941185883
287,0.0172877311706543,0.0000321414420083531
288,0.0170917510986328,0.0000243303794466189
289,0.0166988372802734,0.0000286415048363341
290,0.0165200233459473,0.0000352488786979039
291,0.016200065612793,0.0000286017842544013
292,0.0159139633178711,0.0000327389600634992
293,0.01568603515625,0.0000346322990568494
294,0.0154604911804199,0.0000355099642437064
295,0.0152006149291992,0.0000283201733472197
296,0.0149531364440918,0.0000382904988564633
297,0.0147976875305176,0.0000338268831207971
298,0.0145344734191895,0.0000318688149259751
299,0.0143156051635742,0.0000360122562651847
300,0.0140891075134277,0.0000321962200630089
301,0.0138406753540039,0.0000347060808167751
302,0.0136103630065918,0.0000458669263417389
303,0.0134553909301758,0.0000483302158884928
304,0.01324462890625,0.0000358810060307461
305,0.0130562782287598,0.0000313790009641307
306,0.0128393173217773,0.0000511061778048056
307,0.0127339363098145,0.000047870508540798
308,0.012568473815918,0.0000441557387768081
309,0.0123152732849121,0.0000321228669732365
310,0.0121030807495117,0.0000486116715293921
311,0.0119080543518066,0.000048872901085685
312,0.0117297172546387,0.0000543678009557313
313,0.011594295501709,0.0000626038340967627
314,0.0114145278930664,0.0000508821221593043
315,0.011256217956543,0.0000508150484125625
316,0.01104736328125,0.0000486712711730988
317,0.0108098983764648,0.0000372993656329203
318,0.0106940269470215,0.0000512771799422076
319,0.0105738639831543,0.0000461412332953152
320,0.0104703903198242,0.0000565368829117856
321,0.0101871490478516,0.0000548994695314787
322,0.0101499557495117,0.000064378314330054
323,0.00988054275512695,0.000051042739543115
324,0.00971412658691406,0.0000605470541741812
325,0.00963640213012695,0.0000480269950187795
326,0.00939178466796875,0.0000484945968651081
327,0.00933599472045898,0.0000692514661393436
328,0.00914525985717773,0.0000492852206524436
329,0.00901651382446289,0.0000444802432195383
330,0.00890064239501953,0.000040515026921422
331,0.00871706008911133,0.000049064435070173
332,0.00859594345092773,0.0000578959646554415
333,0.00834417343139648,0.0000711255010874192
334,0.0082554817199707,0.0000742182906114641
335,0.00815200805664063,0.0000521248667596273
336,0.00803852081298828,0.0000397651886185638
337,0.00788497924804688,0.0000484242162027023
338,0.00769138336181641,0.0000474961884882358
339,0.00753593444824219,0.0000521532126765904
340,0.00744390487670898,0.0000473439509601742
341,0.00727128982543945,0.0000435686714215366
342,0.00723171234130859,0.0000477837467011633
343,0.00700759887695313,0.0000402299120283021
344,0.00704479217529297,0.000043304322973787
345,0.00687599182128906,0.0000459412248672345
346,0.00674581527709961,0.0000405507881650339
347,0.00657081604003906,0.000039599022117904
348,0.00644254684448242,0.0000451902275496969
349,0.00637435913085938,0.000049619712257701
350,0.00622177124023438,0.0000346306576767656
351,0.00616455078125,0.0000439376398017777
352,0.00606489181518555,0.0000504546892792179
353,0.00591468811035156,0.0000490655936027777
354,0.00590229034423828,0.0000476694085591552
355,0.0058140754699707,0.0000536023082500969
356,0.00565385818481445,0.0000637376298519503
357,0.00545644760131836,0.0000524032972737941
358,0.00535917282104492,0.0000517154025160882
359,0.00535726547241211,0.0000633188756935127
360,0.0052490234375,0.000051908493918048
361,0.00500679016113281,0.0000652866519271652
362,0.00492715835571289,0.0000591912237152161
363,0.0048518180847168,0.000054897398673911
364,0.00468254089355469,0.0000440913248274492
365,0.00467872619628906,0.0000520943231384447
366,0.00444173812866211,0.0000842383822073277
367,0.00441837310791016,0.0000629587585964166
368,0.00444841384887695,0.0000831476035465059
369,0.0043792724609375,0.0000710199284874127
370,0.00427055358886719,0.0000800575365808481
371,0.00408840179443359,0.0000783291213927501
372,0.00404691696166992,0.0000573910712782978
373,0.00391530990600586,0.0000497181346450276
374,0.00393390655517578,0.0000645951570789851
375,0.003814697265625,0.0000831325620024852
376,0.00367450714111328,0.0000721790345282533
377,0.00365209579467773,0.0000726453233665968
378,0.00368738174438477,0.000061081704628702
379,0.003509521484375,0.0000479796287712296
380,0.00358819961547852,0.0000632991224951866
381,0.00349998474121094,0.0000775296748607737
382,0.00336980819702148,0.000088637858622969
383,0.00337505340576172,0.0000773123481731844
384,0.00329780578613281,0.000092991804071418
385,0.00322246551513672,0.0000657049767950697
386,0.00321674346923828,0.0000990307092230359
387,0.00314092636108398,0.0000754789693352103
388,0.00290822982788086,0.0000836777887809802
389,0.00287532806396484,0.0000793027647001311
390,0.00286340713500977,0.0000538488299123346
391,0.0029296875,0.0000791793808576212
392,0.00277614593505859,0.0000922035884595738
393,0.00265169143676758,0.0000822222688324375
394,0.00259256362915039,0.000084895764112231
395,0.00252628326416016,0.0000846328867746617
396,0.00265264511108398,0.0000879993899879175
397,0.0024113655090332,0.0000759863613696921
398,0.00240421295166016,0.0000745377472121031
399,0.00236082077026367,0.0000700252860373218
400,0.00240659713745117,0.0000846973403374272
401,0.00236701965332031,0.0000795989625554323
402,0.00224113464355469,0.0000712197441148704
403,0.00227022171020508,0.0000758021117919938
404,0.00219821929931641,0.0000746383441806866
405,0.00220012664794922,0.0000807911882630084
406,0.0020909309387207,0.00007134573899083
407,0.00205469131469727,0.000062396469808912
408,0.00213527679443359,0.0000665781480875355
409,0.00203514099121094,0.0000710151260037669
410,0.00185680389404297,0.0000842289345841423
411,0.00193548202514648,0.0000876887846656528
412,0.00186777114868164,0.0000837470500538493
413,0.00174427032470703,0.0000782085624666404
414,0.00167751312255859,0.0000576164530448655
415,0.00168275833129883,0.000086629645801419
416,0.00169944763183594,0.0000726249760706099
417,0.00159740447998047,0.0000633045103423679
418,0.00162220001220703,0.0000723882153686961
419,0.00151920318603516,0.0000555868200424867
420,0.00151681900024414,0.0000739943112994035
421,0.00149726867675781,0.0000641625106084165
422,0.0015568733215332,0.000051433248263592
423,0.00146818161010742,0.0000615544874691198
424,0.0014805793762207,0.000054040609613446
425,0.00143146514892578,0.0000804824283059774
426,0.00135660171508789,0.0000601552328952273
427,0.00131607055664062,0.0000563091991068588
428,0.00120925903320312,0.0000913787221237923
429,0.00123357772827148,0.00007134573899083
430,0.00128698348999023,0.0000646584856795665
431,0.00114297866821289,0.0000618272288846235
432,0.0011286735534668,0.0000653736613907389
433,0.00110292434692383,0.0000618198733163523
434,0.00100469589233398,0.0000654813925593254
435,0.000981330871582031,0.000057855696029324
436,0.00104093551635742,0.0000501246357956615
437,0.000981330871582031,0.0000655889467775322
438,0.000933170318603516,0.0000597722557901198
439,0.000901699066162109,0.0000593772364751237
440,0.000946998596191406,0.0000694285382202198
441,0.000935077667236328,0.000088406689337887
442,0.000783920288085938,0.0000782550650163462
443,0.000899314880371094,0.0000464751140920922
444,0.000814437866210938,0.0000563616679988926
445,0.000744342803955078,0.0000700447654626244
446,0.000782489776611328,0.0000632074588257828
447,0.000782966613769531,0.0000654014799713132
448,0.000699996948242188,0.0000593791510978239
449,0.000667572021484375,0.0000540048343661041
450,0.000700473785400391,0.0000762492287245153
451,0.000687599182128906,0.0000552112776507635
452,0.000639438629150391,0.0000571260070090584
453,0.000675678253173828,0.0000549346621662525
454,0.000604629516601563,0.0000637055157187056
455,0.00054931640625,0.0000664294233980865
456,0.0003204345703125,0.0000629569528354607
457,0.000407695770263672,0.0000652553001196137
458,0.000349521636962891,0.0000778822671716682
459,0.000350475311279297,0.0000619411284965741
460,0.000266551971435547,0.0000603797110961686
461,0.000298500061035156,0.0000538002498915418
462,0.000357627868652344,0.0000605498706000632
463,0.000396251678466797,0.0000624055791816059
464,0.000293254852294922,0.0000655265174343181
465,0.000227451324462891,0.0000660105227686776
466,0.000277519226074219,0.0000694809173587303
467,0.000257968902587891,0.0000736956417411304
468,0.000133991241455078,0.000070533226345446
469,0.000315666198730469,0.0000741677243145434
470,0.00020599365234375,0.00008318997872019
471,0.000213623046875,0.0000664824554069793
472,0.000174045562744141,0.0000766314551321607
473,0.0001373291015625,0.000096977471423434
474,0.000147819519042969,0.0000827185348946243
475,0.000132560729980469,0.0000611282175614018
476,0.0000920295715332031,0.0000416134342751912
477,0.0000424385070800781,0.0000501098910870632
478,0.000115871429443359,0.0000600606640065432
479,-0.0000133514404296875,0.0000763326784995015
480,0.00002288818359375,0.0000650965681832423
481,0.0000934600830078125,0.0000774431109729338
482,0.0000739097595214844,0.0000699066692548099
483,-0.00000762939453125,0.0000711606571484287
484,-0.000131130218505859,0.0000565800995351103
485,0.000180721282958984,0.0000417681860781272
486,-0.00009918212890625,0.0000432609838373244
487,0.0000519752502441406,0.0000566052103109425
488,-0.000104904174804687,0.0000660139671853236
489,-0.000041961669921875,0.0000543144525153132
490,-0.0000205039978027344,0.0000636537422026262
491,-0.000146865844726562,0.0000715986514296402
492,-0.0000791549682617188,0.000068520354816852
493,0.0000162124633789062,0.0000567706628688629
494,-0.0000901222229003906,0.0000507792395213238
495,-0.000145435333251953,0.0000675074112739387
496,-0.0000514984130859375,0.0000805134987867658
497,-0.000243663787841797,0.0000899214248447622
498,-0.000159263610839844,0.0000879063236269933
499,-0.000124931335449219,0.0000700999277722819
500,-0.000267505645751953,0.0000763222522674755
501,-0.000158309936523437,0.0000583117452098273
502,-0.000178337097167969,0.0000497444239070943
503,-0.000249385833740234,0.0000558571532968879
504,-0.000197410583496094,0.0000681310031055876
505,-0.000208377838134766,0.000071045536250804
506,-0.000293731689453125,0.0000555029030028397
507,-0.000340938568115234,0.0000811155929521338
508,-0.000267982482910156,0.0000960610912086061
509,-0.0001983642578125,0.0000779756337263601
510,-0.000300884246826172,0.0000799992927637529
511,-0.000294208526611328,0.0000633727167585059
512,-0.000254154205322266,0.0000623982917898391
513,-0.000248432159423828,0.000069934310311777
514,-0.000350475311279297,0.0000679120580802152
515,-0.000318527221679687,0.0000609372889165669
516,-0.000330924987792969,0.0000599915345840828
517,-0.000184535980224609,0.0000583409824612807
518,-0.000215053558349609,0.0000863852072292871
519,-0.000309944152832031,0.0000875876007746225
520,-0.0003509521484375,0.0000824487160283671
521,-0.000353336334228516,0.0000603467519650936
522,-0.000410556793212891,0.0000505661019577035
523,-0.000374794006347656,0.0000595664855878844
524,-0.000325202941894531,0.0000637928996290572
525,-0.000479221343994141,0.0000617444282195298
526,-0.00048828125,0.0000723065024264186
527,-0.000404834747314453,0.0000782230974831144
528,-0.000476837158203125,0.0000729607599294097
529,-0.000472545623779297,0.0000633834794832728
530,-0.000499248504638672,0.0000722844870057571
531,-0.000399589538574219,0.0000766373891150666
532,-0.000454902648925781,0.0000572810249863213
533,-0.000523090362548828,0.0000632362303590285
534,-0.000488758087158203,0.0000739343663753923
535,-0.00054931640625,0.0000729108807508369
536,-0.000462055206298828,0.0000722813413982792
537,-0.000411510467529297,0.0000445683343717496
538,-0.000422000885009766,0.000061654141029293
539,-0.000505924224853516,0.0000621536704127802
540,-0.000382900238037109,0.0000633619522055717
541,-0.000534534454345703,0.0000417777114753921
542,-0.00048828125,0.0000451675802198258
543,-0.000430107116699219,0.0000502209368177661
544,-0.000494956970214844,0.0000526262772171497
545,-0.000504016876220703,0.0000504794689026371
546,-0.000478267669677734,0.0000497409956608785
547,-0.000485420227050781,0.0000532746835159079
548,-0.000546455383300781,0.000053728355487836
549,-0.000550270080566406,0.0000595655312949857
550,-0.000497341156005859,0.0000540563852838746
551,-0.000514507293701172,0.0000802461828514464
552,-0.000547885894775391,0.0000645300045875355
553,-0.000504970550537109,0.0000620914490152665
554,-0.000543594360351563,0.0000617389042268353
555,-0.0005035400390625,0.0000696949340231682
556,-0.000603675842285156,0.0000597874698548371
557,-0.000595569610595703,0.0000513768527473266
558,-0.000537395477294922,0.0000551206017575116
559,-0.000524997711181641,0.000040764696821844
560,-0.000462055206298828,0.0000437561428152635
561,-0.000545024871826172,0.000052215301801673
562,-0.000524520874023438,0.0000476073607419917
563,-0.000544548034667969,0.0000654414484632887
564,-0.000594139099121094,0.0000661962647975093
565,-0.0005035400390625,0.0000635178596700543
566,-0.000517845153808594,0.0000457515251781883
567,-0.000596523284912109,0.000052656512277139
568,-0.000538349151611328,0.0000606877153535168
569,-0.000526905059814453,0.0000564030032885128
570,-0.000519752502441406,0.000045342174334252
571,-0.000491142272949219,0.0000513668941700877
572,-0.000536918640136719,0.0000474099406094763
573,-0.000507831573486328,0.0000405577964760669
574,-0.000624179840087891,0.0000446256914385598
575,-0.000576496124267578,0.0000534600169611244
576,-0.000593185424804688,0.0000361728995071855
577,-0.000552177429199219,0.0000412691472641189
578,-0.000569820404052734,0.0000523761720081049
579,-0.000571727752685547,0.0000434419325787749
580,-0.000573158264160156,0.0000392146020053938
581,-0.000571727752685547,0.0000425201338225418
582,-0.000615596771240234,0.0000430350488544394
583,-0.00057220458984375,0.0000336854319743632
584,-0.000539302825927734,0.0000398051938486193
585,-0.000586032867431641,0.0000512949137071999
586,-0.00057220458984375,0.0000560795773155706
587,-0.000587940216064453,0.0000537431651389772
588,-0.000547409057617188,0.0000527654304995456
589,-0.000631332397460938,0.0000548248693798882
590,-0.0006103515625,0.0000516284959806211
591,-0.000631809234619141,0.000051232818674329
592,-0.000619411468505859,0.0000652936169511278
593,-0.000608444213867188,0.0000556869452612775
594,-0.00058746337890625,0.0000602100147921165
595,-0.000559329986572266,0.0000456918492503833
596,-0.000570774078369141,0.0000575256157933212
597,-0.000610828399658203,0.0000640525612266807
598,-0.000713348388671875,0.000062843085290058
599,-0.000616073608398438,0.0000440539215819172
600,-0.000618457794189453,0.0000543521156735981
601,-0.000613689422607422,0.000055756314238816
602,-0.000612258911132813,0.0000441711841473417
603,-0.000635623931884766,0.0000408837465455658
604,-0.000588417053222656,0.0000554424450968484
605,-0.000630855560302734,0.0000347715331725448
606,-0.000593185424804688,0.0000490864425139155
607,-0.000623226165771484,0.0000537547984311198
608,-0.000655651092529297,0.0000485952980560199
609,-0.000621795654296875,0.0000498642640355743
610,-0.000608444213867188,0.0000412160839073201
611,-0.000643253326416016,0.000040455354600354
612,-0.000681400299072266,0.0000513668941700877
613,-0.000669956207275391,0.0000653440911724117
614,-0.000670433044433594,0.0000656495850560113
615,-0.000634193420410156,0.0000537991933169506
616,-0.000722408294677734,0.0000540258814982668
617,-0.000654697418212891,0.0000562293930598212
618,-0.0006256103515625,0.0000588609070569444
619,-0.000634670257568359,0.0000396313071515814
620,-0.000640392303466797,0.0000406159187851206
621,-0.000646114349365234,0.0000487786000893394
622,-0.000695705413818359,0.0000693482559932101
