Wavelength (nm),Absorbance (AU),Std.Dev.
190,0.222994327545166,0.000114930615160623
191,0.223334789276123,0.0000915129893180478
192,0.222176551818848,0.0000517186998861551
193,0.220590591430664,0.0000654240738583195
194,0.218388080596924,0.0000576213857492147
195,0.216095924377441,0.00005192929607415
196,0.21369457244873,0.0000613806305123559
197,0.211074829101562,0.0000395120804186782
198,0.208125591278076,0.0000478526936064083
199,0.204813957214355,0.0000457602214154876
200,0.201426982879639,0.000057259188896226
201,0.19809103012085,0.0000476013903434504
202,0.19480037689209,0.0000525852161153957
203,0.191493511199951,0.000050906693723559
204,0.187961101531982,0.0000484910802580865
205,0.184155464172363,0.0000471430163504614
206,0.179893493652344,0.0000465679764381042
207,0.175251960754395,0.0000536849608650383
208,0.170074939727783,0.000051433248263592
209,0.164639472961426,0.0000407639996020754
210,0.158796787261963,0.0000393564012650821
211,0.152422904968262,0.0000395279022239611
212,0.145912647247314,0.0000337621249096644
213,0.139102935791016,0.0000513668941700877
214,0.132106781005859,0.000042722187867684
215,0.125035285949707,0.000046987215160656
216,0.117986679077148,0.0000407116740891779
217,0.11093807220459,0.0000481204063855853
218,0.104048252105713,0.000040729821212888
219,0.0973663330078125,0.0000486257015469615
220,0.0909628868103027,0.0000546358426132193
221,0.0848116874694824,0.0000388549142519218
222,0.0791130065917969,0.0000461486243677862
223,0.0736823081970215,0.0000550875916999745
224,0.0686841011047363,0.000048848470159658
225,0.0639858245849609,0.0000440229431392358
226,0.0597538948059082,0.0000412291838096948
227,0.0558328628540039,0.0000383765050423391
228,0.052281379699707,0.0000427860059413393
229,0.0491271018981934,0.0000401259247772857
230,0.0462498664855957,0.0000385088445845985
231,0.043724536895752,0.0000532042157392675
232,0.0413918495178223,0.0000464897888995599
233,0.0392546653747559,0.0000417647836240385
234,0.0374441146850586,0.0000296157720315083
235,0.0358052253723145,0.0000262189985696094
236,0.034430980682373,0.0000312783004975233
237,0.0331625938415527,0.0000397494612624501
238,0.0321207046508789,0.0000529643533027722
239,0.0312275886535645,0.0000488019012276175
240,0.0303902626037598,0.0000425368412762205
241,0.0295596122741699,0.0000324012515644113
242,0.0289764404296875,0.0000352085398520941
243,0.0283703804016113,0.0000409629208108039
244,0.0278244018554687,0.0000443291889167638
245,0.0273442268371582,0.0000499747181189495
246,0.026923656463623,0.0000393224449882214
247,0.0265412330627441,0.0000336229373241505
248,0.0261473655700684,0.0000397208501155324
249,0.0258216857910156,0.0000408823561547563
250,0.0255899429321289,0.0000455735102700703
251,0.0252485275268555,0.0000456881169168373
252,0.0249814987182617,0.0000402051775539519
253,0.0247411727905273,0.0000353696191990904
254,0.0245308876037598,0.0000416537114059293
255,0.0242743492126465,0.0000440822993635267
256,0.0240964889526367,0.0000387303625120894
257,0.0239057540893555,0.0000518931606776068
258,0.0237598419189453,0.0000606567978810674
259,0.0235204696655273,0.0000441621750043442
260,0.023341178894043,0.0000634999587425872
261,0.0232911109924316,0.0000667640137603269
262,0.0230255126953125,0.0000579077452974711
263,0.022885799407959,0.000046987215160656
264,0.0226163864135742,0.000050203955942617
265,0.0224766731262207,0.0000374043723168972
266,0.0222644805908203,0.0000454586146870515
267,0.0220589637756348,0.0000738374294635033
268,0.0218696594238281,0.0000791377313069334
269,0.0217075347900391,0.0000608074889307053
270,0.0214595794677734,0.0000592277052124948
271,0.0212974548339844,0.0000549625932060959
272,0.0210270881652832,0.000056363685057782
273,0.0208659172058105,0.0000504546892792179
274,0.0206050872802734,0.0000592641642527051
275,0.0203495025634766,0.0000518109410480335
276,0.020174503326416,0.0000515546756278581
277,0.0198779106140137,0.0000553685765213546
278,0.0196795463562012,0.0000458446133036316
279,0.0194191932678223,0.0000592708779455447
280,0.0191798210144043,0.0000602647468911531
281,0.0188841819763184,0.0000473163279983959
282,0.0186433792114258,0.0000560288733601434
283,0.0183930397033691,0.0000455809934003476
284,0.0181536674499512,0.0000510316018922497
285,0.0178823471069336,0.0000319026866376919
286,0.0175724029541016,0.0000351366221233329
287,0.0174283981323242,0.0000510260321551701
288,0.0170998573303223,0.0000529901047827441
289,0.016852855682373,0.0000447045961877332
290,0.0165600776672363,0.0000420374619303402
291,0.0162906646728516,0.0000393296721832296
292,0.0160655975341797,0.0000362482499848969
293,0.0158095359802246,0.0000365652027893333
294,0.0155167579650879,0.0000386899805153804
295,0.0152812004089355,0.000036877119638415
296,0.0150208473205566,0.0000295730353681012
297,0.0148868560791016,0.0000325246986919116
298,0.0146141052246094,0.0000372650603483953
299,0.014401912689209,0.0000377214058715174
300,0.0141854286193848,0.0000465997026527057
301,0.0139226913452148,0.0000445019630253605
302,0.0137929916381836,0.0000462003287674811
303,0.0135698318481445,0.0000342352808297376
304,0.0133938789367676,0.0000412505484036066
305,0.0131740570068359,0.0000424164007238171
306,0.0130228996276855,0.0000412980621760838
307,0.0127778053283691,0.0000388870861849287
308,0.0125432014465332,0.0000524878380056554
309,0.0124716758728027,0.0000529052922183234
310,0.0122528076171875,0.0000487529559744415
311,0.0120553970336914,0.0000481534707178006
312,0.0118331909179687,0.0000593073104454171
313,0.0116963386535645,0.0000468915464489472
314,0.0115814208984375,0.00004319786747471
315,0.0113620758056641,0.000053231986908355
316,0.0111846923828125,0.000045493613625673
317,0.0110106468200684,0.0000433764586416727
318,0.0108556747436523,0.0000510683469218837
319,0.0107393264770508,0.0000588155004925856
320,0.0104994773864746,0.0000475512094004477
321,0.0103402137756348,0.0000400379976434093
322,0.0101752281188965,0.0000502265958337081
323,0.0100269317626953,0.0000511517601863611
324,0.00994491577148438,0.0000358342410560856
325,0.00978374481201172,0.0000423775191825749
326,0.00955915451049805,0.0000492032642136862
327,0.00943231582641602,0.0000538804889367124
328,0.00929403305053711,0.0000517000120084407
329,0.00918388366699219,0.0000397122627518788
330,0.00904273986816406,0.0000347347313984238
331,0.00886774063110352,0.0000442431912489457
332,0.00870466232299805,0.0000520244418099658
333,0.0085597038269043,0.0000496082551210968
334,0.00842905044555664,0.0000361359518771885
335,0.00831317901611328,0.0000528300280717858
336,0.0081944465637207,0.0000399904081778365
337,0.00810623168945313,0.0000380006606882034
338,0.00797080993652344,0.0000513115335455383
339,0.00778532028198242,0.0000451323284515456
340,0.00758934020996094,0.0000487727730653804
341,0.0075840950012207,0.0000512527859964281
342,0.00742769241333008,0.0000444470041632563
343,0.00734758377075195,0.0000350872450569631
344,0.00716018676757813,0.0000407932725722043
345,0.00703954696655273,0.0000285142042090529
346,0.00699663162231445,0.0000442624589743567
347,0.00689554214477539,0.0000358477219664833
348,0.00671005249023438,0.0000394321554003651
349,0.00662422180175781,0.0000363132707248056
350,0.00657796859741211,0.0000411519031722859
351,0.00636720657348633,0.0000503893027702763
352,0.00623846054077148,0.000051303778290988
353,0.00622797012329102,0.0000459832740763893
354,0.00604009628295898,0.0000542327592760679
355,0.005950927734375,0.0000448974533759096
356,0.00593090057373047,0.0000408218283192148
357,0.00572299957275391,0.0000513281480024434
358,0.00565433502197266,0.000046892758664974
359,0.00555324554443359,0.0000511639826965995
360,0.0054631233215332,0.0000324573424936077
361,0.00531768798828125,0.0000389002397613893
362,0.00526332855224609,0.0000493727979197745
363,0.00501775741577148,0.0000540753100133294
364,0.00510454177856445,0.0000766655692616154
365,0.00487232208251953,0.0000971227280271612
366,0.00485420227050781,0.0000704267659069949
367,0.00478744506835938,0.000056857707634514
368,0.00464010238647461,0.0000530758528137224
369,0.00461578369140625,0.0000370708307754074
370,0.00455093383789063,0.0000367999675399298
371,0.00448989868164063,0.0000398415922333441
372,0.00459861755371094,0.00006144172143897
373,0.0044560432434082,0.0000841127771809468
374,0.00438928604125977,0.0000614398710912428
375,0.00418519973754883,0.000057660832192821
376,0.00418376922607422,0.0000457887831380355
377,0.00424957275390625,0.0000544712105400317
378,0.0040278434753418,0.0000685286501589263
379,0.00396871566772461,0.000102283515555998
380,0.00397396087646484,0.0000732484581369052
381,0.00379657745361328,0.0000610332935764282
382,0.00385093688964844,0.0000684755426045704
383,0.00370454788208008,0.0000594595095797705
384,0.00367069244384766,0.000046318293520429
385,0.00360202789306641,0.0000654483970137929
386,0.00355100631713867,0.0000623253710078984
387,0.00352764129638672,0.0000464787832283306
388,0.00336837768554687,0.0000534440652544123
389,0.00330162048339844,0.0000766151343093679
390,0.00324296951293945,0.0000807207991609146
391,0.00327682495117187,0.0000780179036607324
392,0.00331211090087891,0.0000614602218523365
393,0.00305795669555664,0.0000678785692187281
394,0.00307607650756836,0.0000871608240203664
395,0.00308370590209961,0.0000684473124564274
396,0.00296592712402344,0.0000585782367688849
397,0.00297307968139648,0.0000742351383895633
398,0.00289154052734375,0.0000751544374716845
399,0.00266885757446289,0.0000768788093005568
400,0.00292873382568359,0.0000674787761034991
401,0.00272512435913086,0.0000725811317516077
402,0.00274181365966797,0.0000871660412007511
403,0.00265407562255859,0.0000683775174171978
404,0.00261878967285156,0.0000627978425337003
405,0.00261545181274414,0.0000896555306396049
406,0.00245428085327148,0.0000925334418998949
407,0.00244951248168945,0.0000882548164463751
408,0.00244903564453125,0.0000644859453693692
409,0.00242328643798828,0.0000641376998037734
410,0.00228977203369141,0.0000521434023722098
411,0.00224733352661133,0.000075653487416358
412,0.00220060348510742,0.0000792023505446861
413,0.00228452682495117,0.000067960587617224
414,0.00217676162719727,0.0000603147172774108
415,0.00209903717041016,0.0000659984658947918
416,0.00210332870483398,0.0000749575272662973
417,0.00215530395507812,0.0000554649964278997
418,0.00211572647094727,0.0000554465460210818
419,0.00197601318359375,0.0000577799937394681
420,0.00202608108520508,0.0000694350877733894
421,0.00197362899780273,0.0000574633291902265
422,0.00180673599243164,0.0000508273518923227
423,0.00180339813232422,0.0000496975507394691
424,0.00167036056518555,0.0000437600399289454
425,0.00180387496948242,0.0000514597659443725
426,0.00174188613891602,0.0000573097962112717
427,0.00168371200561523,0.0000684340236512822
428,0.00147771835327148,0.000053020132368209
429,0.00170564651489258,0.0000432964463575445
430,0.0015263557434082,0.0000450137813198621
431,0.0014653205871582,0.0000509100434725546
432,0.00142192840576172,0.0000397494612624501
433,0.00154399871826172,0.0000417593391208705
434,0.001434326171875,0.0000483337441994875
435,0.00133800506591797,0.0000614435717309746
436,0.00150728225708008,0.0000514884780201393
437,0.00146007537841797,0.0000454048137893306
438,0.00150299072265625,0.0000508988767852512
439,0.0012969970703125,0.0000626020180979779
440,0.00132131576538086,0.0000654171227242308
441,0.00140953063964844,0.0000516648164892301
442,0.00125789642333984,0.0000379699833100658
443,0.00125217437744141,0.0000498277718647179
444,0.00106239318847656,0.0000472838804523624
445,0.00118017196655273,0.0000453145855429334
446,0.00111961364746094,0.0000538256014596926
447,0.00110197067260742,0.0000445172882727959
448,0.00113201141357422,0.0000453872834560043
449,0.00110912322998047,0.0000602100147921165
450,0.00102901458740234,0.0000493831586268678
451,0.00101804733276367,0.0000601420022027113
452,0.00101995468139648,0.0000611449535555721
453,0.00111722946166992,0.0000731552745802198
454,0.000941276550292969,0.0000671934451660001
455,0.000906944274902344,0.0000637429806345025
456,0.000929832458496094,0.0000572224457713753
457,0.000888824462890625,0.0000587768289777908
458,0.000959396362304688,0.0000636019265416586
459,0.000915050506591797,0.0000613176246859684
460,0.000799179077148438,0.0000627869794211726
461,0.000761508941650391,0.0000600379453079597
462,0.000772953033447266,0.0000533791458700574
463,0.000789165496826172,0.0000441969144367885
464,0.000736713409423828,0.0000469436434716758
465,0.0007781982421875,0.0000455160987322179
466,0.000636100769042969,0.000067115571100944
467,0.000586986541748047,0.0000911669750082337
468,0.000679969787597656,0.0000563808271448203
469,0.000612258911132813,0.0000562819363511721
470,0.000625133514404297,0.0000699261817233481
471,0.000553131103515625,0.0000527309461037376
472,0.000710010528564453,0.0000641961670772374
473,0.000569343566894531,0.0000533503858392644
474,0.000607967376708984,0.000058737164251757
475,0.000693321228027344,0.0000743254385696362
476,0.000591754913330078,0.0000580273793966161
477,0.000538349151611328,0.0000512649844202707
478,0.000473976135253906,0.0000506739045625867
479,0.000513076782226563,0.0000560978195206556
480,0.000470161437988281,0.0000628937185391825
481,0.000477790832519531,0.0000719329043766594
482,0.000472545623779297,0.0000798542092053102
483,0.000426769256591797,0.0000682826814693076
484,0.000295162200927734,0.0000645458585437233
485,0.00156784057617187,0.0000527136954461717
486,-0.000235557556152344,0.0000568547083093275
487,0.000460147857666016,0.00005517626144772
488,0.000221729278564453,0.0000590883784958476
489,0.000383853912353516,0.0000761612095113536
490,0.000403404235839844,0.0000684855034079694
491,0.000315666198730469,0.0000572224457713753
492,0.000252246856689453,0.0000671934451660001
493,0.000339984893798828,0.0000594480364470868
494,0.000338077545166016,0.0000640294833800564
495,0.000401973724365234,0.0000617996409894101
496,0.000302791595458984,0.0000762179115031312
497,0.00020599365234375,0.0000743972941800614
498,0.000220298767089844,0.0000557461183323142
499,0.000154972076416016,0.0000658121656194212
500,0.000133514404296875,0.0000730028189778581
501,0.000316619873046875,0.0000691890552239428
502,0.000224590301513672,0.0000624019355921016
503,0.000241279602050781,0.0000616320097186084
504,0.000196933746337891,0.0000481806137303966
505,0.000265598297119141,0.0000514321430635217
506,0.000143051147460937,0.0000553233860599778
507,0.000127315521240234,0.0000528848739696851
508,0.000186443328857422,0.0000433934913689038
509,0.000208377838134766,0.0000545035509821684
510,0.000273227691650391,0.0000590421841149014
511,0.000131607055664062,0.0000542579087580903
512,0.000135898590087891,0.0000371068475495474
513,0.0000352859497070312,0.000043984189403793
514,0.0000700950622558594,0.0000624656677246094
515,0.000137805938720703,0.0000687919203613331
516,0.000148773193359375,0.0000743162605121928
517,0.000109195709228516,0.0000664824554069793
518,0.0000405311584472656,0.0000510705730436747
519,0.0000095367431640625,0.0000594776708469954
520,0.0000505447387695313,0.0000690525404870814
521,0.000072479248046875,0.0000609503469738216
522,-0.00000095367431640625,0.0000729093214766625
523,0.000026702880859375,0.0000668899034636164
524,0.00000715255737304688,0.0000660484014723585
525,-0.0000147819519042969,0.0000458594898686431
526,-0.0000162124633789062,0.0000956388426097385
527,0.0000128746032714844,0.000078614527106779
528,-0.0000400543212890625,0.0000596618377948903
529,0.0000214576721191406,0.000056386876048957
530,-0.0000944137573242188,0.0000453609752532232
531,-0.0000844001770019531,0.0000458941831005671
532,0.0000629425048828125,0.0000413894927996004
533,0.0000324249267578125,0.0000638392180297072
534,-0.0000700950622558594,0.000042669599319793
535,0.0000166893005371094,0.0000396893540319153
536,-0.0000796318054199219,0.000055296665246293
537,-0.00000905990600585938,0.0000542086467404263
538,-0.0000700950622558594,0.0000473727577477257
539,-0.0000615119934082031,0.0000801114808442627
540,-0.0000615119934082031,0.0000731723671158534
541,-0.0000815391540527344,0.0000506211548884972
542,-0.000115394592285156,0.0000485906189073829
543,-0.000104904174804687,0.0000561747768543756
544,-0.000134468078613281,0.0000579685738083621
545,-0.0000729560852050781,0.0000570871867421039
546,-0.000109672546386719,0.0000478811943198382
547,-0.0001220703125,0.0000435673667163865
548,-0.000115394592285156,0.0000584120653093275
549,-0.000121593475341797,0.0000558255970184167
550,-0.000187873840332031,0.0000573296300226325
551,-0.0000538825988769531,0.000048738962588397
552,-0.000187397003173828,0.0000559486674535415
553,-0.000210762023925781,0.0000445249489184383
554,-0.000174045562744141,0.0000524585893242416
555,-0.000156402587890625,0.0000521172325324825
556,-0.000157356262207031,0.0000590344815371164
557,-0.000188827514648437,0.0000457962310926169
558,-0.000220298767089844,0.0000417266571834667
559,-0.000178813934326172,0.0000541803270275277
560,-0.000148773193359375,0.0000607261060432501
561,-0.000204563140869141,0.0000421913321079705
562,-0.000238895416259766,0.0000476228802752261
563,-0.000101566314697266,0.0000506132938503431
564,-0.000231742858886719,0.0000478752580703802
565,-0.000201702117919922,0.0000577465351692242
566,-0.000175952911376953,0.0000676470442219798
567,-0.0000977516174316406,0.0000544064719841097
568,-0.000142097473144531,0.0000544597302828569
569,-0.000112533569335937,0.0000531924620337843
570,-0.000150680541992187,0.000054521277918874
571,-0.000178813934326172,0.0000522697052232541
572,-0.000321388244628906,0.0000647428274544446
573,-0.0000815391540527344,0.0000643412193604918
574,-0.000171661376953125,0.0000427448009989864
575,-0.000256061553955078,0.0000488368320897433
576,-0.0000634193420410156,0.0000486140101468389
577,-0.00018310546875,0.0000400649635618249
578,-0.000325679779052734,0.0000392269212220647
579,-0.000215053558349609,0.0000324003743731674
580,-0.000123023986816406,0.000044912643672964
581,-0.000108242034912109,0.0000480601236160507
582,-0.000372409820556641,0.0000530019033630032
583,-0.000353813171386719,0.0000428795665378242
584,-0.000130176544189453,0.0000383320431771257
585,-0.000248432159423828,0.0000382288411923691
586,-0.000367641448974609,0.0000384112975562026
587,-0.000176429748535156,0.0000395896904288106
588,-0.000313758850097656,0.0000472778692037267
589,-0.000321388244628906,0.0000549967118797442
590,-0.000284671783447266,0.0000605939775147441
591,-0.000353813171386719,0.0000441183901409807
592,-0.000138282775878906,0.0000467422041343155
593,-0.000333786010742187,0.0000425020823957794
594,-0.000226020812988281,0.000036267063143026
595,-0.000348091125488281,0.000043775624914278
596,-0.000362873077392578,0.0000316333928883018
597,-0.000257015228271484,0.0000469254766606582
598,-0.000302314758300781,0.0000516196871602225
599,-0.000268936157226562,0.000051353613063039
600,-0.000299453735351562,0.0000513458641641591
601,-0.000317096710205078,0.000045115952196178
602,-0.000353813171386719,0.0000414478202661049
603,-0.000319480895996094,0.0000447681277494868
604,-0.000397205352783203,0.0000470162405202617
605,-0.000295162200927734,0.0000563051610130456
606,-0.000466346740722656,0.0000424117100154121
607,-0.000408172607421875,0.0000400088824527798
608,-0.000387668609619141,0.0000468648697634369
609,-0.000374317169189453,0.0000449379494241678
610,-0.000271797180175781,0.0000481144996495367
611,-0.00038909912109375,0.0000487249651835741
612,-0.000396728515625,0.000040275101497228
613,-0.000332355499267578,0.0000409268252320093
614,-0.000392913818359375,0.0000350929148065447
615,-0.000405788421630859,0.0000460906959121482
616,-0.000502586364746094,0.0000402292055400808
617,-0.000380992889404297,0.0000447020530471794
618,-0.00040435791015625,0.0000451348473480706
619,-0.000409126281738281,0.0000431781246905975
620,-0.000313758850097656,0.000041538921260907
621,-0.000413417816162109,0.000048907781238396
622,-0.000389575958251953,0.0000520975965258078
623,-0.000491619110107422,0.0000596256219190238
624,-0.000435352325439453,0.0000611746951289515
625,-0.000456809997558594,0.0000456121598952031
626,-0.000434398651123047,0.0000442020586973468
627,-0.000430107116699219,0.0000389053538401284
628,-0.000439167022705078,0.0000570194369067494
629,-0.000368118286132812,0.0000603231987032641
630,-0.000482082366943359,0.000051545854192087
631,-0.000458240509033203,0.0000464481982367789
632,-0.000485897064208984,0.0000427554383341432
633,-0.000461578369140625,0.0000470174495213939
634,-0.000472545623779297,0.0000550308094000843
635,-0.000481128692626953,0.0000519632185562644
636,-0.000473976135253906,0.0000439285827621005
637,-0.000527381896972656,0.0000589082085503761
638,-0.000494956970214844,0.0000773549805548391
639,-0.000488758087158203,0.0000800660565123978
640,-0.000519752502441406,0.0000669357772391483
641,-0.000445365905761719,0.0000528977706226088
642,-0.000377178192138672,0.0000400266381375188
643,-0.000409603118896484,0.0000447871696444439
644,-0.000426769256591797,0.0000452053194662536
645,-0.000491619110107422,0.000060575212540303
646,-0.000464439392089844,0.0000597522814514003
647,-0.000437736511230469,0.0000467495001936956
648,-0.000500202178955078,0.0000373610357665041
649,-0.00054931640625,0.00004362734276959
650,-0.000542640686035156,0.0000438015875670048
651,-0.000501632690429688,0.0000535248382583705
652,-0.0005340576171875,0.000054460774042601
653,-0.000520706176757813,0.0000612601217203373
654,-0.000522613525390625,0.0000550225452748838
655,0.000396251678466797,0.0000468284679742168
656,0.0000362396240234375,0.0000447693974611239
657,-0.00204992294311523,0.0000393412329336802
658,-0.000473976135253906,0.0000472995061234648
659,-0.000635623931884766,0.0000535641178736328
660,-0.00048828125,0.0000665046820511289
661,-0.000531196594238281,0.0000783828047734423
662,-0.000544548034667969,0.0000597522814514003
663,-0.000577449798583984,0.0000523370869275757
664,-0.000513553619384766,0.0000453496956371709
665,-0.000597476959228516,0.000061904409583811
666,-0.000555515289306641,0.000050436660088262
667,-0.000500679016113281,0.0000573772031972852
668,-0.000586986541748047,0.0000609587399621149
669,-0.000569820404052734,0.0000588937325362282
670,-0.000590324401855469,0.0000530758528137224
671,-0.000546455383300781,0.0000621536704127802
672,-0.000542163848876953,0.0000495945030634158
673,-0.000587940216064453,0.0000552040702481768
674,-0.000571250915527344,0.0000695119987976473
675,-0.000583171844482422,0.0000625584183122376
676,-0.000561237335205078,0.000050453562643531
677,-0.000570774078369141,0.0000459139960346726
678,-0.000502109527587891,0.0000554352677494481
679,-0.000505447387695313,0.0000546909562949462
680,-0.000593185424804688,0.0000460524479012435
681,-0.000591278076171875,0.0000504873507777577
682,-0.000581264495849609,0.0000417668251297526
683,-0.000487804412841797,0.0000519544664877268
684,-0.000537872314453125,0.0000617720407732197
685,-0.000490188598632813,0.0000511750915363632
686,-0.000586509704589844,0.0000513292554416918
687,-0.00054168701171875,0.0000621426946931645
688,-0.000581741333007813,0.0000555847747927466
689,-0.000552654266357422,0.000054568174365692
690,-0.000599861145019531,0.0000608551455407153
691,-0.000511646270751953,0.0000622377532921209
692,-0.000608921051025391,0.000059362874836525
693,-0.000574111938476563,0.0000551082253031027
694,-0.000589370727539063,0.0000614398710912428
695,-0.000579357147216797,0.0000550070466936811
696,-0.000596523284912109,0.0000534344919446081
697,-0.000567913055419922,0.0000425495345534676
698,-0.000610828399658203,0.0000384896503277229
699,-0.000531196594238281,0.0000474722464620708
700,-0.000636100769042969,0.0000452857247447828
701,-0.000527381896972656,0.0000447160385303504
702,-0.000588893890380859,0.0000457552523394152
703,-0.000537395477294922,0.0000566413502708402
704,-0.000607490539550781,0.0000541099881600662
705,-0.000628471374511719,0.0000548715063600343
706,-0.000512123107910156,0.0000499132583772237
707,-0.000560760498046875,0.0000535980662187314
708,-0.000601768493652344,0.0000564755188757035
709,-0.000612735748291016,0.0000540900246696726
710,-0.000574588775634766,0.0000537801714247513
711,-0.000598907470703125,0.0000606427392737073
712,-0.000692844390869141,0.0000591720138929742
713,-0.000615119934082031,0.0000504884766594723
714,-0.000606060028076172,0.0000596141807557373
715,-0.000627040863037109,0.0000460166387234316
716,-0.000648021697998047,0.0000518767271765104
717,-0.000675201416015625,0.000065298840231561
718,-0.000672340393066406,0.0000582873696307594
719,-0.000624179840087891,0.0000723536557708384
720,-0.000642299652099609,0.0000504445486521877
721,-0.000718593597412109,0.0000541120891516669
722,-0.000774860382080078,0.0000558439221898109
723,-0.000700950622558594,0.0000559517153476115
724,-0.00069427490234375,0.0000614287678344266
725,-0.000739574432373047,0.0000607532457854721
726,-0.000768184661865234,0.0000455473096323378
727,-0.000761508941650391,0.0000370669971441522
728,-0.000810623168945313,0.0000341313496090237
729,-0.000779151916503906,0.0000581076507899949
730,-0.000772953033447266,0.0000564382655587877
731,-0.000800132751464844,0.0000388680787158781
732,-0.000807762145996094,0.00004992692263583
733,-0.000855922698974609,0.0000560146680279271
734,-0.000884056091308594,0.0000595111113045605
735,-0.000905513763427734,0.0000446727965250134
736,-0.000918388366699219,0.0000499178135456911
737,-0.000995159149169922,0.000043263611687522
738,-0.000968456268310547,0.0000511806450520483
739,-0.000927925109863281,0.0000703120603108898
740,-0.000910758972167969,0.0000491223282290376
741,-0.000896930694580078,0.000048417172509552
742,-0.000944614410400391,0.0000475237069069493
743,-0.000960350036621094,0.0000580890611941292
744,-0.000913619995117188,0.0000494314798802412
745,-0.000888824462890625,0.0000452040619989877
746,-0.000899791717529297,0.0000631768747148076
747,-0.000894069671630859,0.0000697650406474319
748,-0.000879764556884766,0.0000702716264453593
749,-0.000881195068359375,0.0000568856937103529
750,-0.000856399536132813,0.000049202108922729
751,-0.000886440277099609,0.0000615193857881611
752,-0.000871658325195313,0.0000637233589019026
753,-0.000828266143798828,0.0000627960321454467
754,-0.000781059265136719,0.0000587236140629115
755,-0.000813007354736328,0.0000694105237623708
756,-0.000827312469482422,0.0000536139721057239
757,-0.000789165496826172,0.0000465643143300389
758,-0.000771999359130859,0.0000483019801221752
759,-0.000794887542724609,0.0000551401921290351
760,-0.000759124755859375,0.0000396585496010595
761,-0.000732898712158203,0.000065451871012416
762,-0.000812530517578125,0.000062861173275146
763,-0.000769138336181641,0.0000547688525832415
764,-0.000717639923095703,0.0000518712481858446
765,-0.000694751739501953,0.0000479156100638199
766,-0.000797748565673828,0.0000672627786667294
767,-0.000631809234619141,0.0000582532266844723
768,-0.000666618347167969,0.0000392710936582187
769,-0.000683307647705078,0.0000471635099082028
770,-0.000681877136230469,0.0000485519987246427
771,-0.000635623931884766,0.0000568876921889394
772,-0.000685214996337891,0.000058628675053365
773,-0.000679492950439453,0.0000574564042884715
774,-0.000667572021484375,0.0000542359035990836
775,-0.000656604766845703,0.000050436660088262
776,-0.000684261322021484,0.000056135298769738
777,-0.000689029693603516,0.0000719076126238004
778,-0.000668525695800781,0.0000737634872640695
779,-0.000626564025878906,0.000058849317222153
780,-0.000691413879394531,0.0000610928709621724
781,-0.000606536865234375,0.0000571966121573404
782,-0.000666141510009766,0.0000491443097474978
783,-0.000616073608398438,0.0000520091427530815
784,-0.000594139099121094,0.0000543813912074011
785,-0.000626087188720703,0.000049592210683047
786,-0.000622749328613281,0.0000492886805998417
787,-0.000581264495849609,0.0000558143953406979
788,-0.000568866729736328,0.0000647129689808268
789,-0.000645637512207031,0.000054642084688295
790,-0.000606060028076172,0.0000431076351239392
791,-0.0005950927734375,0.0000445109033942764
792,-0.000590801239013672,0.0000511184112138801
793,-0.000662803649902344,0.0000638320943095456
794,-0.000577449798583984,0.0000521793644709763
795,-0.000621318817138672,0.0000420921907540166
796,-0.000730037689208984,0.000053368495813913
797,-0.000539302825927734,0.0000460215795769083
798,-0.000607967376708984,0.0000334789267016942
799,-0.000644207000732422,0.000054722128116397
800,-0.000597476959228516,0.0000657188174349188
801,-0.000618934631347656,0.0000700837080705973
802,-0.000577449798583984,0.000069510363278929
803,-0.00061798095703125,0.0000555029030028397
804,-0.000593185424804688,0.000056363685057782
805,-0.000589370727539063,0.00005076244540798
806,-0.00069427490234375,0.0000751181236684909
807,-0.000638961791992188,0.0000701420814436003
808,-0.000634670257568359,0.0000566082228555109
809,-0.000583171844482422,0.0000646725502804571
810,-0.000742435455322266,0.0000646356241757898
811,-0.000652313232421875,0.0000772034554153432
812,-0.000675201416015625,0.0000622048648314014
813,-0.000695705413818359,0.0000538298255602649
814,-0.000657081604003906,0.0000524108898324545
815,-0.000774383544921875,0.0000657153575482421
816,-0.000623226165771484,0.0000553254409726375
817,-0.000815391540527344,0.0000647954853138649
818,-0.000732898712158203,0.0000708837321248292
819,-0.000772476196289063,0.0000508810049880763
820,-0.000693321228027344,0.0000660294648367225
821,-0.000774383544921875,0.0000745514729736064
822,-0.000728130340576172,0.000064570512516183
823,-0.000836849212646484,0.0000748679894683072
824,-0.000774383544921875,0.0000610211848122936
825,-0.000743389129638672,0.0000522838408403233
826,-0.000830650329589844,0.0000704122361031069
827,-0.000753402709960938,0.0000641642824416404
828,-0.00090789794921875,0.0000665525296110836
829,-0.000807285308837891,0.0000589631849916941
830,-0.000845432281494141,0.0000644400918265931
831,-0.000991344451904297,0.0000465801813856177
832,-0.00100040435791016,0.0000578409566005933
833,-0.000957965850830078,0.0000576134932195404
834,-0.00105428695678711,0.0000659743455368054
835,-0.00108575820922852,0.0000611598261501503
836,-0.000993251800537109,0.0000502277275603862
837,-0.00104045867919922,0.0000593992509101786
838,-0.00100421905517578,0.000050080388646421
839,-0.00102853775024414,0.0000535800338386068
840,-0.00106954574584961,0.000053695548153063
841,-0.000954151153564453,0.0000496803909700425
842,-0.00101661682128906,0.0000590739466321891
843,-0.000982761383056641,0.0000537378764463834
844,-0.000987052917480469,0.0000543479321671516
845,-0.000966072082519531,0.0000730308448867456
846,-0.000990390777587891,0.0000575848737314244
847,-0.000962257385253906,0.0000588560782364714
848,-0.000954151153564453,0.0000705364499110127
849,-0.000939846038818359,0.0000844378845120686
850,-0.000948905944824219,0.0000673286637867686
851,-0.000969886779785156,0.0000492759929383293
852,-0.000815391540527344,0.0000425949321304691
853,-0.0009307861328125,0.0000569975006007535
854,-0.000884532928466797,0.0000657534062885951
855,-0.000814437866210938,0.0000678148948204951
856,-0.000863075256347656,0.0000674602409867938
857,-0.00083160400390625,0.0000595235272610265
858,-0.000858783721923828,0.0000556338400343801
859,-0.000675678253173828,0.0000587168377958634
860,-0.000821590423583984,0.0000649584534058155
861,-0.000777721405029297,0.0000764561954453009
862,-0.000796318054199219,0.0000513779591367563
863,-0.000792980194091797,0.0000516824172448365
864,-0.000690937042236328,0.0000526478754603709
865,-0.000739574432373047,0.0000648060117513178
866,-0.000757217407226563,0.0000514774368092774
867,-0.000712871551513672,0.000055767527582927
868,-0.000710010528564453,0.0000555970451626075
869,-0.000751495361328125,0.0000531945992643146
870,-0.000693321228027344,0.0000662786497264635
871,-0.000754833221435547,0.0000767544912740235
872,-0.000826835632324219,0.0000966133744586927
873,-0.000761508941650391,0.0000656097433579135
874,-0.000725269317626953,0.0000781925708278511
875,-0.000692367553710938,0.0000763907414563477
876,-0.000631809234619141,0.0000665217744161728
877,-0.000645160675048828,0.0000521488527691528
878,-0.000652313232421875,0.0000527805103379124
879,-0.000641345977783203,0.0000570762326622291
880,-0.000638008117675781,0.0000673793008094846
881,-0.000598430633544922,0.0000757826120844693
882,-0.000656604766845703,0.0000557522360999692
883,-0.000589847564697266,0.0000504749644213982
884,-0.000648975372314453,0.0000657983446153061
885,-0.00055694580078125,0.0000728640880104834
886,-0.000624179840087891,0.0000678986645176985
887,-0.000616550445556641,0.0000651227594191705
888,-0.000632286071777344,0.0000565579928301306
889,-0.000564098358154297,0.0000674636113867852
890,-0.000690460205078125,0.0000802135915396673
891,-0.000599861145019531,0.0000682493744669506
892,-0.000554561614990234,0.0000868000812758084
893,-0.000667572021484375,0.0000836913739403815
894,-0.00067901611328125,0.0000698773903358118
895,-0.000575542449951172,0.0000635536463987203
896,-0.000543594360351563,0.0000721648575301842
897,-0.000638484954833984,0.000100167587322242
898,-0.00061798095703125,0.0000680625540475849
899,-0.000678062438964844,0.0000637928996290572
900,-0.000678539276123047,0.0000635178596700543
901,-0.000652790069580078,0.0000652378759383414
902,-0.000653266906738281,0.0000577120722616177
903,-0.000597000122070313,0.0000760955017889546
904,-0.000730037689208984,0.0000739020681993842
905,-0.000685691833496094,0.0000658501584233317
906,-0.000727653503417969,0.0000629352796626908
907,-0.000659942626953125,0.0000725607664551821
908,-0.000767230987548828,0.0000647691617355639
909,-0.000666618347167969,0.0000637697278126715
910,-0.000789165496826172,0.0000815405483015107
911,-0.000701427459716797,0.0000842451298609305
912,-0.000876903533935547,0.0000851725138469936
913,-0.000857830047607422,0.0000700853302096818
914,-0.000897407531738281,0.00006348384359214
915,-0.000842571258544922,0.0000600076403301652
916,-0.000884056091308594,0.0000715541782402027
917,-0.000959396362304688,0.0000882780003859474
918,-0.00096893310546875,0.0000777229940826766
919,-0.000890254974365234,0.0000679472036207144
920,-0.00103139877319336,0.0000608850286818421
921,-0.00109386444091797,0.000060215679040373
922,-0.00114154815673828,0.0000738143304829501
923,-0.00117635726928711,0.000084827440765073
924,-0.00115871429443359,0.0000783741018583238
925,-0.00144433975219727,0.0000683558997479985
926,-0.00145769119262695,0.0000860317841441644
927,-0.00144195556640625,0.0000779872966862618
928,-0.00160121917724609,0.0000684223938296239
929,-0.00169944763183594,0.0000780470420011174
930,-0.00170373916625977,0.000094420981853236
931,-0.00178098678588867,0.0000529986858288766
932,-0.00196361541748047,0.0000870538029182122
933,-0.00204753875732422,0.000107946496557854
934,-0.00212764739990234,0.0000837877652344615
935,-0.00228309631347656,0.0000645881167348683
936,-0.00243139266967773,0.000118754472950247
937,-0.00237703323364258,0.000102901856472035
938,-0.002655029296875,0.000082404580073635
939,-0.00286483764648437,0.0000941388143863912
940,-0.00276899337768555,0.0000887916371192616
941,-0.00279617309570312,0.0000629117919665331
942,-0.0030055046081543,0.0000891443209449764
943,-0.00310230255126953,0.0000872390489656774
944,-0.0032496452331543,0.0000950761160382624
945,-0.00333976745605469,0.00010476753699666
946,-0.00351047515869141,0.0000708709001674241
947,-0.00358343124389648,0.0000681310031055876
948,-0.00379657745361328,0.0000950091306932987
949,-0.00405359268188477,0.000108037031869646
950,-0.00420999526977539,0.000115120380675553
951,-0.00438547134399414,0.0000962738827811983
952,-0.00454235076904297,0.000095498471830852
953,-0.00485038757324219,0.0000972210043569555
954,-0.00497102737426758,0.000116105686637987
955,-0.00545120239257813,0.00010745459499881
956,-0.00566339492797852,0.0000992898173020157
957,-0.0056767463684082,0.0000976829753009739
958,-0.00634860992431641,0.000127489528257751
959,-0.00627231597900391,0.000150692613335447
960,-0.00633573532104492,0.000133483746959821
961,-0.00648975372314453,0.000130789052871199
962,-0.00630378723144531,0.000138889821889884
963,-0.00661659240722656,0.000103613104671792
964,-0.00623083114624023,0.0000985589070672243
965,-0.00635290145874023,0.000149191366494475
966,-0.00643634796142578,0.000134539078169448
967,-0.0063786506652832,0.000131800412760594
968,-0.00613975524902344,0.000133224581459649
969,-0.00586700439453125,0.000132543576454862
970,-0.00571155548095703,0.00013406842950948
971,-0.00578975677490234,0.000141725758028155
972,-0.0055994987487793,0.0001190718812564
973,-0.00551462173461914,0.000122103835509633
974,-0.00548791885375977,0.000141777087020024
975,-0.00518083572387695,0.000133023039048482
976,-0.00501871109008789,0.0000698480991436806
977,-0.00490188598632813,0.000136921197364197
978,-0.00463628768920898,0.000178655554249005
979,-0.00502490997314453,0.000177106333242899
980,-0.00440740585327148,0.0001492187967007
981,-0.00423622131347656,0.000106200959490421
982,-0.00390481948852539,0.000148439644771377
983,-0.00380754470825195,0.000191234886875511
984,-0.0036015510559082,0.000188253474202427
985,-0.00340127944946289,0.000114837594783709
986,-0.00317001342773437,0.000101484570269951
987,-0.00311613082885742,0.000154235999103882
988,-0.00265169143676758,0.00019167193060909
989,-0.00272512435913086,0.0001456907249964
990,-0.00252342224121094,0.000144036396935435
991,-0.00235605239868164,0.000198561313759394
992,-0.00242900848388672,0.000191818971050638
993,-0.00196695327758789,0.0002147906614407
994,-0.00177574157714844,0.00019998075163965
995,-0.00155162811279297,0.00019503047817597
996,-0.001373291015625,0.0001616808483351
997,-0.00149106979370117,0.000159938888273194
998,-0.00133323669433594,0.000210020651476429
999,-0.00124311447143555,0.000181398782548683
1000,-0.000804901123046875,0.00025560606682268
1001,-0.000836372375488281,0.00017048645599947
1002,-0.000899314880371094,0.000214099353033482
1003,-0.000589847564697266,0.0001923871003559
1004,-0.000496864318847656,0.000189912932401949
1005,-0.000612735748291016,0.000218085111675496
1006,-0.0004425048828125,0.000217884842160127
1007,-0.000275135040283203,0.000183269308222829
1008,-0.000253677368164062,0.000240704072424508
1009,-0.000212669372558594,0.000181203139386177
1010,-0.000220298767089844,0.000178390637688851
1011,0.000449180603027344,0.00020628925589074
1012,0.000383377075195312,0.000219357531650952
1013,0.000147342681884766,0.000237803619751334
1014,0.000133514404296875,0.000178777691029122
1015,0.000236034393310547,0.000269813998726367
1016,0.000162601470947266,0.000266360400014534
1017,0.000303268432617187,0.000192292528703744
1018,0.000519752502441406,0.000230528944850741
1019,0.000619888305664063,0.000248014002972225
1020,0.000924110412597656,0.000246040580697588
1021,0.000108718872070312,0.000299908966232314
1022,0.000546932220458984,0.000222543533921664
1023,0.000583648681640625,0.000226199807542671
1024,0.000828742980957031,0.000288672032859511
1025,0.000924587249755859,0.000354202395730696
1026,0.000606536865234375,0.000374326584327034
1027,0.00112533569335937,0.000281513286247179
1028,0.000613212585449219,0.000281500363012327
1029,0.00106573104858398,0.000269773545841451
1030,0.000741481781005859,0.00026768875315053
1031,0.000201225280761719,0.00029825468611743
1032,0.000433921813964844,0.000281157680847057
1033,0.000819206237792969,0.000446759520628581
1034,0.000549793243408203,0.000489531347291208
1035,0.000468730926513672,0.000379452138256033
1036,0.000107765197753906,0.00038051485716362
1037,0.000472545623779297,0.000379710911197794
1038,0.000458240509033203,0.000338036853509718
1039,0.00011444091796875,0.00043829194942375
1040,0.000482082366943359,0.000490526164746638
1041,0.000633716583251953,0.000324013568257647
1042,0.000298976898193359,0.000287130415885034
1043,0.000134468078613281,0.000293638784405059
1044,0.0000658035278320313,0.000320377798955055
1045,0.00105381011962891,0.000309167034428847
1046,0.000458240509033203,0.000384234896839675
1047,0.000380039215087891,0.000572763805515242
1048,0.000525951385498047,0.000544299956030056
1049,-0.0000162124633789062,0.000484856876319462
1050,-0.000399589538574219,0.000530777805509219
1051,-0.0000243186950683594,0.000592347685051931
1052,0.000191688537597656,0.000636825977406195
1053,-0.000164508819580078,0.000669889514630866
1054,-0.000374794006347656,0.000724672006332039
1055,-0.000236034393310547,0.000358591688296681
1056,-0.00125455856323242,0.000516240036700284
1057,-0.000588893890380859,0.000666688607023727
1058,-0.00132274627685547,0.000616790661258092
1059,-0.0000600814819335938,0.000611292590458311
1060,-0.000939369201660156,0.000544099405812849
1061,-0.00131368637084961,0.000631214257564485
1062,-0.00104045867919922,0.000771682237047885
1063,0.0000977516174316406,0.00063514423083327
1064,-0.00186491012573242,0.000558016023118149
1065,-0.000596046447753906,0.000748983532564997
1066,-0.000890731811523438,0.000849641930844296
1067,-0.0003509521484375,0.000814239066739243
1068,-0.000294685363769531,0.000955153272164856
1069,0.000502109527587891,0.000956493026847255
1070,-0.000131130218505859,0.000893763298947753
1071,-0.000385761260986328,0.000950372702887806
1072,-0.000300407409667969,0.000981645468803505
1073,-0.000806331634521484,0.00100288093656416
1074,-0.00133943557739258,0.000888799904414443
1075,-0.00165128707885742,0.000930363918912227
1076,-0.00142812728881836,0.00100404107453846
1077,-0.00163173675537109,0.000869617117234803
1078,-0.00112819671630859,0.000990176671320045
1079,-0.0000543594360351563,0.00117695620751951
1080,-0.00147676467895508,0.00118550578773605
1081,0.000240802764892578,0.00134567467503033
1082,-0.000287532806396484,0.00115526769931687
1083,-0.00114202499389648,0.0011873946111744
1084,-0.000100135803222656,0.000931505019437393
1085,-0.00190973281860352,0.000894121422859344
1086,0.000359058380126953,0.00153796180345276
1087,-0.0011591911315918,0.0015508140228998
1088,-0.000103473663330078,0.00151846035974084
1089,-0.00231742858886719,0.00141800050726183
1090,-0.00329351425170898,0.00162246209729246
1091,-0.00146293640136719,0.00133849676699483
1092,-0.000498771667480469,0.00140588027014312
1093,-0.000685214996337891,0.00150482917308827
1094,-0.000867366790771484,0.00136623690118993
1095,-0.00232124328613281,0.00161786343550894
1096,-0.00266790390014648,0.00160826478552222
1097,-0.00200939178466797,0.00215386874595537
1098,-0.0012359619140625,0.00221720233855817
1099,0.00352382659912109,0.00209206845954081
1100,-0.00043487548828125,0.00195544819944879
