Wavelength (nm),Absorbance (AU),Std.Dev.
190,0.249159812927246,0.000101842415422153
191,0.248495101928711,0.0000735705806958606
192,0.247188568115234,0.0000504918541539845
193,0.245505332946777,0.0000644982849842488
194,0.243782520294189,0.0000522957987627228
195,0.2421555519104,0.0000654327617374971
196,0.240500926971436,0.0000490099531460938
197,0.238745212554932,0.0000495956492138664
198,0.236770629882812,0.0000485297489200284
199,0.234552383422852,0.0000364757050905952
200,0.232053279876709,0.0000454673669474038
201,0.229424953460693,0.0000499940509191817
202,0.226588249206543,0.0000461104244078241
203,0.223350524902344,0.0000503114046899089
204,0.219726085662842,0.0000589737885808575
205,0.215609073638916,0.0000791075575986522
206,0.210946559906006,0.000047948815618785
207,0.205738067626953,0.0000456831399977684
208,0.199872016906738,0.0000456046818789392
209,0.193662166595459,0.00004753207891563
210,0.186880111694336,0.0000453384132148947
211,0.179411888122559,0.0000576677325463098
212,0.171835899353027,0.0000557583531963869
213,0.163784503936768,0.0000580224812072891
214,0.155656814575195,0.0000391812482339938
215,0.147261619567871,0.0000469593823563107
216,0.138972282409668,0.0000485074889096961
217,0.130688667297363,0.0000502571435087704
218,0.12252140045166,0.0000408705359231281
219,0.114608764648437,0.0000523175334375162
220,0.107025623321533,0.0000558031914144055
221,0.0998001098632813,0.0000444226983553657
222,0.0930943489074707,0.0000480423789942198
223,0.0866498947143555,0.0000537579707102443
224,0.0807938575744629,0.0000517769187989535
225,0.0753731727600098,0.0000414361613411608
226,0.0703997611999512,0.0000373572319163465
227,0.0658841133117676,0.0000416816776781086
228,0.0618414878845215,0.0000410516362519982
229,0.0582613945007324,0.0000392254721032692
230,0.0550270080566406,0.0000382630251833147
231,0.0521349906921387,0.0000555909103162261
232,0.0494904518127441,0.0000429649860642912
233,0.0472040176391602,0.0000396685815769073
234,0.0452518463134766,0.0000376331473692679
235,0.0434203147888184,0.0000374218447842282
236,0.0419087409973145,0.0000320049747363087
237,0.0405545234680176,0.0000410239332854852
238,0.0392732620239258,0.0000541803270275277
239,0.0381989479064941,0.0000528418623941342
240,0.0372886657714844,0.0000481853326935548
241,0.036402702331543,0.0000398579963159447
242,0.0356564521789551,0.0000456482863708979
243,0.0349388122558594,0.0000419677654087293
244,0.0342793464660645,0.0000371497155644772
245,0.0337109565734863,0.0000474494903475146
246,0.0332093238830566,0.0000398487252729202
247,0.0327496528625488,0.0000333197961243829
248,0.0323128700256348,0.0000397101156208047
249,0.0319452285766602,0.0000500565470581463
250,0.0315861701965332,0.00005164500846923
251,0.0312261581420898,0.0000483643121125717
252,0.030827522277832,0.0000436077944245002
253,0.0305662155151367,0.0000445466469269103
254,0.0302939414978027,0.000039133343168314
255,0.0300502777099609,0.0000369717959172374
256,0.0297894477844238,0.0000309843267014177
257,0.0295834541320801,0.0000505199911604335
258,0.0292983055114746,0.0000582727393890741
259,0.0290608406066895,0.0000466984038397036
260,0.028775691986084,0.0000668576030496046
261,0.0286264419555664,0.00007861018859662
262,0.0283904075622559,0.0000682926704024054
263,0.0281133651733398,0.0000498995903768642
264,0.0278396606445312,0.0000481853326935548
265,0.0276799201965332,0.0000434863985478375
266,0.0273652076721191,0.0000626183601910696
267,0.027198314666748,0.0000764071102102444
268,0.0269856452941895,0.0000772917586072117
269,0.026698112487793,0.0000667963594309042
270,0.0263786315917969,0.0000561170687481872
271,0.0261640548706055,0.0000582405399207643
272,0.0258402824401855,0.00004519777413789
273,0.0255990028381348,0.0000494567721710644
274,0.0253510475158691,0.0000618180342875314
275,0.0250287055969238,0.0000556859244845122
276,0.0247998237609863,0.0000509357175628753
277,0.0244994163513184,0.0000556307747245878
278,0.0242385864257812,0.00004519777413789
279,0.0239043235778809,0.000055557156551986
280,0.0236072540283203,0.0000559963987342034
281,0.0232510566711426,0.0000530244206351497
282,0.022974967956543,0.000072144374725761
283,0.022728443145752,0.0000515491624074054
284,0.022402286529541,0.0000541992084802798
285,0.0220232009887695,0.0000401783057411346
286,0.021791934967041,0.000050540240105576
287,0.0215449333190918,0.0000530662130772908
288,0.0211887359619141,0.0000527794333494853
289,0.0208702087402344,0.0000404244307988438
290,0.0205492973327637,0.0000400273482010829
291,0.0202999114990234,0.0000382340450756051
292,0.0199904441833496,0.0000399356457688829
293,0.0197272300720215,0.0000360169912933118
294,0.019340991973877,0.0000416441576457538
295,0.0190858840942383,0.0000419379568287758
296,0.018801212310791,0.0000337023025278195
297,0.0185704231262207,0.0000478360603484514
298,0.0182757377624512,0.000035789003299765
299,0.0180706977844238,0.0000414526200467879
300,0.0178074836730957,0.0000518559039322369
301,0.0175247192382812,0.0000544190080377287
302,0.0173068046569824,0.0000617407456126486
303,0.0170435905456543,0.0000441222552590521
304,0.016810417175293,0.0000363539473580763
305,0.0166153907775879,0.0000392602361917204
306,0.0163674354553223,0.000047365557693311
307,0.0161027908325195,0.0000388593029021027
308,0.0158629417419434,0.0000428961339976369
309,0.0156803131103516,0.000052965426531074
310,0.0155010223388672,0.0000481475680380793
311,0.0152182579040527,0.0000428616664883956
312,0.0150041580200195,0.0000494498755565091
313,0.0148110389709473,0.0000468988192751172
314,0.0146408081054687,0.0000412767221750347
315,0.0143771171569824,0.0000521183232048247
316,0.0142116546630859,0.0000572442958773
317,0.0139617919921875,0.0000518602884679624
318,0.0138149261474609,0.000039950588415864
319,0.0136289596557617,0.0000546836803131581
320,0.013397216796875,0.000043749646854359
321,0.0132346153259277,0.0000425475306035515
322,0.0129976272583008,0.000057933261803713
323,0.0128140449523926,0.0000556522283475692
324,0.0126986503601074,0.0000442033446689435
325,0.0125117301940918,0.0000565459309846469
326,0.0123000144958496,0.0000647410714548388
327,0.0121026039123535,0.0000563848598196802
328,0.011927604675293,0.0000581369906811803
329,0.0118250846862793,0.0000479144237255371
330,0.0116310119628906,0.0000323028580783164
331,0.0114288330078125,0.0000391790720017366
332,0.0112419128417969,0.0000517933839682179
333,0.0110278129577637,0.0000483349202459175
334,0.0108838081359863,0.0000444162998794722
335,0.0107288360595703,0.0000638338753141164
336,0.010617733001709,0.0000488065601203467
337,0.0104074478149414,0.0000370677639021219
338,0.0102849006652832,0.0000459399875431424
339,0.0100831985473633,0.0000481440260828725
340,0.00993633270263672,0.0000591431874607607
341,0.00973415374755859,0.0000528386351145395
342,0.00965499877929688,0.0000428125687288996
343,0.00950956344604492,0.0000395005696707063
344,0.00934839248657227,0.0000561373239622552
345,0.00924873352050781,0.0000518449409706691
346,0.00914907455444336,0.0000471092428209546
347,0.00891256332397461,0.0000371657783225057
348,0.00883197784423828,0.0000398922091946182
349,0.00863027572631836,0.0000438625393104743
350,0.0085444450378418,0.0000541887195965325
351,0.0083470344543457,0.0000497089872948477
352,0.00821018218994141,0.0000395638373413155
353,0.00821065902709961,0.0000342327901760055
354,0.00802421569824219,0.0000609419528296374
355,0.00785684585571289,0.0000493105879623223
356,0.00775480270385742,0.0000430284440308429
357,0.00756311416625977,0.0000526834932036168
358,0.00744247436523438,0.0000697911088559633
359,0.00744152069091797,0.0000603561706962407
360,0.00728130340576172,0.0000438767923847886
361,0.0071110725402832,0.000067029126704428
362,0.00707674026489258,0.0000777829424094317
363,0.00683498382568359,0.0000681943823481115
364,0.00684595108032227,0.0000744202122171541
365,0.00666427612304688,0.0000599849015493828
366,0.00654697418212891,0.0000586781012579383
367,0.00653171539306641,0.000057512768525871
368,0.00628948211669922,0.0000601939631942077
369,0.00625467300415039,0.0000613528418002191
370,0.00615692138671875,0.0000528106570967138
371,0.00606346130371094,0.0000394184582976071
372,0.00608015060424805,0.0000634372657171616
373,0.00594282150268555,0.0000757360925213759
374,0.00583314895629883,0.0000629027559019724
375,0.00562572479248047,0.0000428152241012726
376,0.00552177429199219,0.0000511017285663168
377,0.00555038452148438,0.0000633350328188871
378,0.00545024871826172,0.0000733694198295074
379,0.00538110733032227,0.0000950689412945599
380,0.00537919998168945,0.0000746474826373086
381,0.0051426887512207,0.0000612619774971882
382,0.00510025024414063,0.0000534387469606958
383,0.00505495071411133,0.0000540889737555453
384,0.00501871109008789,0.0000467944674225068
385,0.00478506088256836,0.0000601117496845986
386,0.00479269027709961,0.0000652605264668251
387,0.004791259765625,0.0000841046671893953
388,0.0046086311340332,0.0000633996201446464
389,0.00454235076904297,0.0000846812315458901
390,0.00437498092651367,0.0000991018594028133
391,0.00454568862915039,0.0000800078188976135
392,0.004425048828125,0.0000640117255287067
393,0.00431013107299805,0.0000570154491152344
394,0.00423145294189453,0.0000754563728705135
395,0.00436687469482422,0.0000816742853666534
396,0.00417184829711914,0.0000689306005757764
397,0.00411081314086914,0.0000798143362115669
398,0.00402307510375977,0.0000655299872914751
399,0.00390815734863281,0.0000692251947172528
400,0.00403261184692383,0.0000711175086498343
401,0.00380420684814453,0.0000691463205616921
402,0.00384378433227539,0.0000678902921993252
403,0.00366640090942383,0.0000650756076047715
404,0.00381803512573242,0.0000654466599453296
405,0.00376319885253906,0.0000994042513548187
406,0.00355386734008789,0.00010099046284517
407,0.00352048873901367,0.0000885583017756549
408,0.0035395622253418,0.0000750045297153208
409,0.00350284576416016,0.0000604324083168063
410,0.00332450866699219,0.000074310141177462
411,0.00327634811401367,0.0000691578286454136
412,0.00331974029541016,0.0000596103665466572
413,0.00334692001342773,0.0000598359388692686
414,0.00320577621459961,0.0000746322512546209
415,0.00316476821899414,0.00007622536915146
416,0.00315189361572266,0.000079668915832951
417,0.00316667556762695,0.0000704461343171077
418,0.00312280654907227,0.0000697976243868421
419,0.0029444694519043,0.0000617720407732197
420,0.00299358367919922,0.0000479061185349665
421,0.00296545028686523,0.0000444111804350247
422,0.00291156768798828,0.000042686914095564
423,0.0028834342956543,0.0000693990575817751
424,0.00271892547607422,0.0000780921849423035
425,0.00284719467163086,0.0000764457860594157
426,0.00281810760498047,0.0000655716112554169
427,0.00264835357666016,0.0000639264191765909
428,0.00249528884887695,0.0000476932516099929
429,0.00266456604003906,0.00005623444743273
430,0.00257349014282227,0.0000548942922410805
431,0.00247049331665039,0.0000807292490936796
432,0.00244665145874023,0.0000652396185658827
433,0.00242948532104492,0.000043682031595607
434,0.00236797332763672,0.0000449935719776594
435,0.00237846374511719,0.0000643924401260178
436,0.00235223770141602,0.0000886660713132436
437,0.00237941741943359,0.0000709574708470851
438,0.00229740142822266,0.0000552009810732787
439,0.00228023529052734,0.0000630814290733177
440,0.00217437744140625,0.0000631192644215402
441,0.00230598449707031,0.0000694301756664346
442,0.0021815299987793,0.0000700772191387681
443,0.00213956832885742,0.0000776088182005835
444,0.00198888778686523,0.0000550493991457436
445,0.00205755233764648,0.0000671528264860506
446,0.00196313858032227,0.0000558093029257588
447,0.00198745727539062,0.0000568046962411791
448,0.00200939178466797,0.0000689256525156701
449,0.00191926956176758,0.000068876152363845
450,0.00196743011474609,0.0000596827948364826
451,0.00189638137817383,0.0000542872350949784
452,0.00186872482299805,0.0000487167981734889
453,0.00197839736938477,0.0000458470930663544
454,0.00188922882080078,0.0000707520942344338
455,0.0017704963684082,0.0000609550098877677
456,0.0016942024230957,0.000075745098537523
457,0.0016322135925293,0.0000618511284402506
458,0.00178146362304687,0.0000493589802606803
459,0.00169754028320312,0.000075302537087928
460,0.00164699554443359,0.0000694318130740326
461,0.00153255462646484,0.0000604446350295837
462,0.0015711784362793,0.0000604013601612114
463,0.00161409378051758,0.0000487867567536494
464,0.00149822235107422,0.0000445861866994721
465,0.00151872634887695,0.0000418083141249423
466,0.00143051147460937,0.0000571439151605661
467,0.00145387649536133,0.0000587052195183109
468,0.00147914886474609,0.0000530126270663731
469,0.00136041641235352,0.0000713712298545761
470,0.00138187408447266,0.0000931213038678797
471,0.00139808654785156,0.0000678567925958846
472,0.0014033317565918,0.00007174616810924
473,0.00138998031616211,0.0000829244358824928
474,0.00126838684082031,0.0000727766610650327
475,0.00143814086914062,0.0000733709693257079
476,0.00132656097412109,0.0000480601236160507
477,0.0012664794921875,0.0000583624138035546
478,0.00125741958618164,0.0000803608557068594
479,0.00124168395996094,0.000080596765032709
480,0.00121593475341797,0.0000754593861234297
481,0.00125885009765625,0.0000722357146967255
482,0.00124311447143555,0.0000677343784432509
483,0.00118398666381836,0.0000671714464299787
484,0.00117254257202148,0.0000614232154533573
485,0.00146055221557617,0.000054557756416731
486,0.00115156173706055,0.0000550473339284652
487,0.00100851058959961,0.0000540490238773527
488,0.00101518630981445,0.0000590768332869653
489,0.0010981559753418,0.0000646637602633889
490,0.00104475021362305,0.0000658208022732581
491,0.00106620788574219,0.0000662666416369137
492,0.00113391876220703,0.0000706008903135544
493,0.00108098983764648,0.0000674062916676337
494,0.00105381011962891,0.0000546275187369397
495,0.00109291076660156,0.0000583614398223657
496,0.00108098983764648,0.000079654644643256
497,0.0010228157043457,0.0000668661046713185
498,0.000943660736083984,0.0000564191259181452
499,0.000984668731689453,0.000056056259192221
500,0.000837802886962891,0.0000649427001732798
501,0.000990867614746094,0.0000722105290033222
502,0.00102138519287109,0.0000684855034079694
503,0.000876426696777344,0.0000538773238714213
504,0.000927925109863281,0.0000502876726273908
505,0.000977039337158203,0.0000494751584432442
506,0.000844478607177734,0.000054793756007324
507,0.000940322875976563,0.0000677343784432509
508,0.000996589660644531,0.000077293229472386
509,0.000916004180908203,0.0000737434484925663
510,0.000919818878173828,0.0000752028285990594
511,0.000879287719726563,0.0000573345874034211
512,0.000777721405029297,0.0000720371389953882
513,0.000800132751464844,0.0000662666416369137
514,0.000798702239990234,0.0000634981683722833
515,0.000788211822509766,0.0000811394156526826
516,0.000856876373291016,0.0000910197079672837
517,0.000852584838867188,0.0000674787761034991
518,0.0007781982421875,0.0000488263554550438
519,0.000817298889160156,0.0000382815906363684
520,0.000779628753662109,0.0000444942984222049
521,0.000761508941650391,0.0000581614292844208
522,0.000713348388671875,0.0000775824460579405
523,0.000774860382080078,0.0000700236625072789
524,0.000695228576660156,0.0000600246887628204
525,0.000751972198486328,0.0000602524836746533
526,0.000683307647705078,0.0000821032725039965
527,0.000778675079345703,0.0000742825979328696
528,0.000671863555908203,0.0000555561333905101
529,0.000783443450927734,0.0000684340236512822
530,0.000682353973388672,0.0000730993074289449
531,0.0006256103515625,0.0000722593183117471
532,0.000696182250976563,0.0000574583829169925
533,0.000725746154785156,0.000056494639411157
534,0.000650882720947266,0.0000422014354771017
535,0.000738143920898438,0.0000394739382100706
536,0.000744819641113281,0.0000416154832055599
537,0.000790119171142578,0.0000412305625046679
538,0.000688076019287109,0.0000451197318595864
539,0.000669002532958984,0.0000823010436838676
540,0.000716209411621094,0.0000714237760290252
541,0.000710487365722656,0.0000488996447614781
542,0.000680446624755859,0.0000521172325324825
543,0.000632286071777344,0.0000618584802919871
544,0.000635623931884766,0.0000659864068179038
545,0.000630855560302734,0.0000576795598031519
546,0.000592708587646484,0.0000501575122184269
547,0.000626087188720703,0.0000414889432251894
548,0.000638484954833984,0.0000649146849872155
549,0.000620365142822266,0.0000644224471583106
550,0.000527858734130859,0.0000648288131689352
551,0.000644207000732422,0.000056972562727947
552,0.000641822814941406,0.0000661515967878361
553,0.000570774078369141,0.0000547979054776827
554,0.000539779663085938,0.0000650651247833856
555,0.000556468963623047,0.0000530169159403792
556,0.000594139099121094,0.0000502763677079243
557,0.000558376312255859,0.0000485906189073829
558,0.000546932220458984,0.0000405879184241453
559,0.000557899475097656,0.0000507030616570529
560,0.000547409057617188,0.0000624911423782404
561,0.000566482543945313,0.0000469618032550032
562,0.000552654266357422,0.0000579911229986377
563,0.00052642822265625,0.0000517889937682551
564,0.000584602355957031,0.0000554455208184594
565,0.000575065612792969,0.0000652065006789081
566,0.000582695007324219,0.0000731537205153088
567,0.000603199005126953,0.000068604920243922
568,0.000536918640136719,0.0000652343905436046
569,0.000526905059814453,0.0000729981469469437
570,0.000552177429199219,0.0000742749452189575
571,0.000543117523193359,0.0000550452686337028
572,0.000507354736328125,0.0000444546769205992
573,0.000637054443359375,0.0000649707032792751
574,0.000616550445556641,0.0000468709339797332
575,0.000492572784423828,0.0000473475527670918
576,0.000540256500244141,0.0000443279065959629
577,0.000531673431396484,0.0000481180437781757
578,0.000483989715576172,0.0000522892765985997
579,0.000501155853271484,0.000048006870073903
580,0.000497341156005859,0.0000571120745645865
581,0.000552177429199219,0.0000470174495213939
582,0.00048828125,0.0000471225138800829
583,0.000395298004150391,0.0000441840511650481
584,0.000525951385498047,0.0000474003478245919
585,0.000472545623779297,0.000045068049022943
586,0.000494003295898438,0.0000434196825176965
587,0.000429153442382813,0.0000501291717565591
588,0.000462055206298828,0.000062913599023707
589,0.000440120697021484,0.0000692284791902324
590,0.000455379486083984,0.0000685568468140641
591,0.000444412231445313,0.0000497981022853443
592,0.000508308410644531,0.0000460931624358924
593,0.000419139862060547,0.0000475500139706341
594,0.000413894653320313,0.0000526802562220645
595,0.000426292419433594,0.0000494038735226842
596,0.000436305999755859,0.0000485086607438508
597,0.000419139862060547,0.0000655299872914751
598,0.000426769256591797,0.0000687158578344883
599,0.000394344329833984,0.0000540469204341857
600,0.000426292419433594,0.0000474291203586744
601,0.000414371490478516,0.0000470307464826124
602,0.000410556793212891,0.0000512017429181905
603,0.000441551208496094,0.0000549450086513553
604,0.000439167022705078,0.0000520244418099658
605,0.000405311584472656,0.0000587806972741508
606,0.000386714935302734,0.000044010029019113
607,0.000368118286132812,0.0000488310120146324
608,0.000403881072998047,0.0000574316656803305
609,0.000360488891601562,0.0000637875530339316
610,0.000403404235839844,0.000057625331608683
611,0.0003662109375,0.0000556103350080127
612,0.000346183776855469,0.0000526014282740373
613,0.000395298004150391,0.0000494843490175014
614,0.000430583953857422,0.0000535577501632966
615,0.000435829162597656,0.0000555765930411229
616,0.000359535217285156,0.0000492909870965135
617,0.000287532806396484,0.0000529407367756721
618,0.000360488891601562,0.0000487564536934239
619,0.000326156616210937,0.0000574623399696411
620,0.000412464141845703,0.000052088867035712
621,0.000409126281738281,0.0000586655063759487
622,0.000350475311279297,0.0000573445008793149
623,0.000309467315673828,0.0000634372657171616
624,0.000308990478515625,0.0000695643150937196
625,0.000340938568115234,0.000076368414774165
626,0.000342845916748047,0.0000778165517380728
627,0.000294685363769531,0.0000498346161822152
628,0.000336647033691406,0.0000664875852920477
629,0.000406742095947266,0.000068430701046777
630,0.000315189361572266,0.0000525917015785684
631,0.000321865081787109,0.0000587061877959282
632,0.000316619873046875,0.0000682393791961606
633,0.000317573547363281,0.0000695920921293565
634,0.000282764434814453,0.0000662254545142916
635,0.000264644622802734,0.0000562395013513907
636,0.000295639038085937,0.0000421664001136831
637,0.000329017639160156,0.0000510393985030497
638,0.000282764434814453,0.0000707745863288116
639,0.000255107879638672,0.0000701680095773548
640,0.000278949737548828,0.0000696051598399457
641,0.000293731689453125,0.0000670986299968296
642,0.000353813171386719,0.0000463403784805822
643,0.000313758850097656,0.0000601684606783915
644,0.000344753265380859,0.0000635608013265672
645,0.000279426574707031,0.0000582678618255239
646,0.000226020812988281,0.0000712085692600232
647,0.000308036804199219,0.0000610267737712098
648,0.000257492065429687,0.0000424344885991651
649,0.000262737274169922,0.0000405430776236583
650,0.000283241271972656,0.000045928850126305
651,0.000249385833740234,0.0000556624414522684
652,0.000212192535400391,0.0000583838372788841
653,0.00029754638671875,0.0000650511450604368
654,0.000299930572509766,0.0000545671326603006
655,0.000426292419433594,0.0000498346161822152
656,0.000605583190917969,0.0000565338665656949
657,-0.000329017639160156,0.0000623089520710563
658,0.000278949737548828,0.0000635590126701155
659,0.000210762023925781,0.0000555274772148704
660,0.000237941741943359,0.0000719408062259442
661,0.000243186950683594,0.0000698318209502731
662,0.000232219696044922,0.0000650511450604368
663,0.000194072723388672,0.0000589014535198458
664,0.000240325927734375,0.0000635464906652744
665,0.000205039978027344,0.0000669968934124922
666,0.000194072723388672,0.0000654657651634003
667,0.000247955322265625,0.0000712979190571811
668,0.000169277191162109,0.0000746855475040076
669,0.000271797180175781,0.0000677343784432509
670,0.000234603881835937,0.0000616135608871959
671,0.000264644622802734,0.0000655369264546534
672,0.000237941741943359,0.0000548196850440898
673,0.000247478485107422,0.0000651820872581742
674,0.000247478485107422,0.0000723033577767367
675,0.000220298767089844,0.0000710007166037914
676,0.000277519226074219,0.0000632074588257828
677,0.000239849090576172,0.0000588309619808896
678,0.000292301177978516,0.0000618106776250886
679,0.000202655792236328,0.0000597608426997716
680,0.000210762023925781,0.0000559486674535415
681,0.000197887420654297,0.0000478835686135605
682,0.000220298767089844,0.0000503227017383705
683,0.000215053558349609,0.0000570393716823495
684,0.000206470489501953,0.0000639210837495336
685,0.000236034393310547,0.0000575137568790993
686,0.000207424163818359,0.0000551051307551698
687,0.00020599365234375,0.0000655091653916882
688,0.000249385833740234,0.0000605789660002031
689,0.000181198120117187,0.000064677823717288
690,0.000187873840332031,0.0000675107793190064
691,0.000238895416259766,0.0000639121903813167
692,0.00016021728515625,0.0000634766799898161
693,0.000199794769287109,0.0000652431036813298
694,0.000220298767089844,0.0000686397110196365
695,0.000214099884033203,0.0000738497459655845
696,0.000212669372558594,0.0000612638332178246
697,0.000189781188964844,0.0000469956827423311
698,0.000133037567138672,0.00005340576171875
699,0.000243663787841797,0.0000479594839503485
700,0.000220298767089844,0.0000478859427895598
701,0.000213146209716797,0.0000423184582801613
702,0.000191688537597656,0.0000495165025940049
703,0.000218391418457031,0.0000608159016343368
704,0.000192642211914062,0.0000493105879623223
705,0.000151634216308594,0.0000551340064479317
706,0.000220775604248047,0.0000603580542660976
707,0.000227451324462891,0.0000688398296307294
708,0.000179767608642578,0.0000620676419967335
709,0.000220775604248047,0.0000628774480128362
710,0.000178813934326172,0.0000636983770459223
711,0.000197410583496094,0.0000594585535699372
712,0.000144004821777344,0.0000597265903432371
713,0.000216007232666016,0.000057556240012445
714,0.000155925750732422,0.0000771445304675008
715,0.000147342681884766,0.0000474914010486018
716,0.000202178955078125,0.000055015313147001
717,0.000156879425048828,0.0000728968460825554
718,0.000184535980224609,0.000074098714662288
719,0.000151157379150391,0.0000725952274562401
720,0.000181674957275391,0.0000540900246696726
721,0.000114917755126953,0.0000523381730183844
722,0.0000796318054199219,0.0000569466157555398
723,0.000164508819580078,0.0000689174049593691
724,0.0000929832458496094,0.0000806743087103142
725,0.000108242034912109,0.0000709750926695049
726,0.0000805854797363281,0.0000537505684343843
727,0.0000696182250976563,0.0000509970597164159
728,0.0000638961791992188,0.0000444329340002839
729,0.0000977516174316406,0.0000628973336401218
730,0.00011444091796875,0.0000725842643669765
731,0.0000629425048828125,0.0000609503469738216
732,0.0000410079956054688,0.0000492425279790178
733,0.0000357627868652344,0.0000580224812072891
734,0.0000820159912109375,0.0000798841008899127
735,0.00006866455078125,0.0000499815423140862
736,0.00000143051147460937,0.0000519446186479873
737,-0.0000152587890625,0.0000608121627986248
738,-0.0000309944152832031,0.0000583964929109411
739,-0.000000476837158203125,0.0000802475995647423
740,-0.0000276565551757812,0.000056755641657938
741,0.0000286102294921875,0.0000552153957441272
742,-0.0000176429748535156,0.000061705749885828
743,0.00000095367431640625,0.0000698008819242105
744,0.0000548362731933594,0.0000520266270222658
745,-0.00000238418579101562,0.0000529793765205762
746,0.000057220458984375,0.0000796560718772828
747,0.0000214576721191406,0.0000788513357844696
748,0.0000481605529785156,0.000078365397976698
749,0.0000443458557128906,0.0000630904395475988
750,0.0000939369201660156,0.0000576972961425781
751,0.0000386238098144531,0.0000707520942344338
752,-0.0000128746032714844,0.0000756008735373906
753,0.0000176429748535156,0.0000635733205126447
754,0.000134944915771484,0.0000624674876872501
755,0.0000476837158203125,0.0000651751103154453
756,0.000102519989013672,0.0000634408498447227
757,0.000139713287353516,0.0000609232950351122
758,0.000125885009765625,0.0000603194293278923
759,0.000109195709228516,0.0000705541768889602
760,0.0000658035278320313,0.0000602052941781558
761,0.000117301940917969,0.0000597123127291436
762,0.0000858306884765625,0.0000614269170965012
763,0.000120639801025391,0.0000609596724450391
764,0.000109672546386719,0.0000584908369538049
765,0.000100612640380859,0.0000768433103871816
766,0.0000524520874023438,0.0000781358468267045
767,0.000154972076416016,0.0000678182475950662
768,0.000123023986816406,0.0000593274345969993
769,0.000116825103759766,0.0000760581425662415
770,0.000173568725585937,0.0000700317797811145
771,0.000167369842529297,0.000075099960182209
772,0.000119686126708984,0.0000664892951657841
773,0.000167369842529297,0.0000628810640491858
774,0.00022125244140625,0.000075639961628613
775,0.000177860260009766,0.0000615452521256417
776,0.000133514404296875,0.000065762050659406
777,0.000150203704833984,0.0000755376885087696
778,0.000132560729980469,0.0000788643108007302
779,0.000166416168212891,0.0000662632103544965
780,0.000113010406494141,0.000069014663320086
781,0.000146389007568359,0.0000656236040833999
782,0.000162601470947266,0.0000524000429833075
783,0.000163078308105469,0.0000743070813211194
784,0.000222206115722656,0.0000598045810513044
785,0.000107288360595703,0.0000563182837593207
786,0.000214576721191406,0.0000511817556828747
787,0.000193119049072266,0.0000632865490679697
788,0.000162601470947266,0.0000677545165077492
789,0.000106334686279297,0.000070533226345446
790,0.000195026397705078,0.0000715970635771305
791,0.000170707702636719,0.0000550349409973273
792,0.000112533569335937,0.0000495245377263245
793,0.000155448913574219,0.0000692662394354396
794,0.000174999237060547,0.0000704525892705567
795,0.000177383422851562,0.0000557093976180177
796,0.000176429748535156,0.0000636894525797424
797,0.000197410583496094,0.0000601996289527764
798,0.000187397003173828,0.0000608990313564556
799,0.000134944915771484,0.0000547730039402234
800,0.000152111053466797,0.0000671392814651905
801,0.000150203704833984,0.0000733864624883118
802,0.000219345092773437,0.0000787503460164726
803,0.000225067138671875,0.0000663831997102074
804,0.000252723693847656,0.000067938837283969
805,0.000216960906982422,0.0000663917620804155
806,0.000152111053466797,0.000071765180432189
807,0.000182628631591797,0.0000662477673843071
808,0.000164508819580078,0.000060652112040687
809,0.000179290771484375,0.0000569026785410788
810,0.00009918212890625,0.0000733709693257079
811,0.000147819519042969,0.0000730090478873385
812,0.000162601470947266,0.0000619209357891111
813,0.0000605583190917969,0.000064681339102986
814,0.000171184539794922,0.0000549646616073839
815,0.000156402587890625,0.0000765305070265591
816,0.000151157379150391,0.0000558439221898109
817,0.000116825103759766,0.0000674315857852517
818,0.000147819519042969,0.0000858465815770555
819,0.000103473663330078,0.0000622085199634569
820,0.000106334686279297,0.0000633170802028573
821,0.0000643730163574219,0.0000795132216639127
822,0.0000796318054199219,0.0000798812545447232
823,0.0000853538513183594,0.0000865193397047278
824,0.000146865844726562,0.0000629984722422823
825,0.000107288360595703,0.0000684805231873754
826,0.000049591064453125,0.0000856556697434689
827,0.0000782012939453125,0.0000650266733134779
828,0.0000743865966796875,0.0000688794534806896
829,0.000072479248046875,0.0000841965346850397
830,-0.00000333786010742187,0.0000818314249874621
831,-0.0000619888305664063,0.0000720750051186368
832,-0.0000395774841308594,0.0000717271507467989
833,0.0000367164611816406,0.0000849198651103353
834,-0.00005340576171875,0.0000812136415712119
835,-0.000121116638183594,0.0000661979821959659
836,0.0000257492065429687,0.0000663437985740196
837,-0.000111103057861328,0.0000678467394894422
838,-0.0000329017639160156,0.0000502752370761659
839,-0.0000715255737304688,0.0000489240501327405
840,-0.0000391006469726562,0.0000506839993011368
841,-0.0000576972961425781,0.0000667503898414502
842,-0.0000391006469726562,0.0000648989211305583
843,-0.0000600814819335938,0.0000640294833800564
844,-0.00000810623168945313,0.0000479689649198887
845,-0.0000290870666503906,0.0000673978581855899
846,-0.0000872611999511719,0.0000569526045676177
847,-0.0000705718994140625,0.0000704203085864929
848,-0.00000619888305664063,0.0000779435515881058
849,-0.000057220458984375,0.0000890983978779922
850,-0.0000691413879394531,0.00006330271444426
851,-0.0000457763671875,0.0000420178503305183
852,0.0000123977661132812,0.0000424297998904149
853,-0.00003814697265625,0.0000659984658947918
854,0.0000362396240234375,0.0000698546093589192
855,0.0000505447387695313,0.0000753040468072879
856,0.0000367164611816406,0.0000714858262565849
857,0.000049591064453125,0.0000701112793308412
858,-0.0000395774841308594,0.0000737526978328823
859,0.000162601470947266,0.0000659105563852893
860,-0.0000224113464355469,0.0000725356936256654
861,0.0000658035278320313,0.000072889047876938
862,0.000100135803222656,0.0000691857688793795
863,0.000109672546386719,0.0000679505498669857
864,0.000131130218505859,0.0000768270345700709
865,0.000148296356201172,0.0000610025512510883
866,0.0000672340393066406,0.0000550752078275737
867,0.0000896453857421875,0.0000657067070344884
868,0.000122547149658203,0.0000672137453009545
869,0.000116348266601562,0.0000746200639099787
870,0.000123977661132812,0.0000823949221820375
871,0.0000538825988769531,0.0000734220843553463
872,0.0000553131103515625,0.0000964084078530936
873,0.000166416168212891,0.0000734096961012647
874,0.0000886917114257813,0.0000778370024850672
875,0.000148773193359375,0.0000742305439202171
876,0.000162124633789062,0.0000712739970589042
877,0.000249385833740234,0.0000840614006867883
878,0.000148296356201172,0.0000692678807182888
879,0.000157833099365234,0.000065666899993687
880,0.000151157379150391,0.0000755361834591374
881,0.000178337097167969,0.0000916148015077884
882,0.0001373291015625,0.0000638142815299858
883,0.000217914581298828,0.0000722341408481564
884,0.0000963211059570313,0.0000720466073919761
885,0.000180721282958984,0.0000876524756822465
886,0.000170230865478516,0.0000747053335696597
887,0.000118255615234375,0.0000840897968400987
888,0.000157356262207031,0.0000686761395953425
889,0.000121116638183594,0.0000706926163935584
890,0.0000624656677246094,0.00009283763537139
891,0.000177860260009766,0.0000879968061403067
892,0.000223159790039062,0.0000847188139614871
893,0.000163078308105469,0.0000687869623255284
894,0.0000386238098144531,0.000072293923006973
895,0.000198841094970703,0.000066758905116567
896,0.000187397003173828,0.000081088959298679
897,0.000119209289550781,0.0000891443209449764
898,0.0000677108764648438,0.0000763118246109478
899,0.000141143798828125,0.0000832296004799585
900,0.000147819519042969,0.0000804668885666453
901,0.0000944137573242188,0.0000704122361031069
902,0.0001220703125,0.000067399544966419
903,0.000133037567138672,0.0000898202246271783
904,0.000117778778076172,0.0000883217756677616
905,0.000191688537597656,0.0000734065987110774
906,0.000146865844726562,0.000072505908379407
907,0.000102996826171875,0.0000806743087103142
908,0.00012969970703125,0.0000650389103379345
909,0.000126361846923828,0.0000560065490775597
910,0.0000281333923339844,0.0000744736602100821
911,0.000146865844726562,0.0000854257461972123
912,0.0000457763671875,0.0000753568679298358
913,0.0000143051147460937,0.0000742902498584678
914,-0.00000905990600585938,0.0000785306067660679
915,0.0000567436218261719,0.0000887301577024258
916,-0.0000319480895996094,0.0000839192757922947
917,0.000041961669921875,0.000114593801104372
918,0.00000715255737304688,0.000100319557527275
919,0.0000252723693847656,0.0000796646347444805
920,-0.000113964080810547,0.0000849519891383844
921,-0.000114917755126953,0.0000638196258858873
922,-0.000247478485107422,0.0000798129118076618
923,-0.000133514404296875,0.000104721951442751
924,-0.000130653381347656,0.000117234078602775
925,-0.000325202941894531,0.000095405570986937
926,-0.000298500061035156,0.0000751196370941057
927,-0.000319004058837891,0.0000792296183989091
928,-0.000405311584472656,0.0000753915588028919
929,-0.000435829162597656,0.0000809963743482606
930,-0.000460147857666016,0.00011057071279766
931,-0.000464916229248047,0.0000620383285092981
932,-0.000535011291503906,0.0000965026994379116
933,-0.00063323974609375,0.000106675197251202
934,-0.000730037689208984,0.0000830819477329801
935,-0.000872135162353516,0.000081639479103357
936,-0.000883102416992188,0.0000950665495929961
937,-0.000769138336181641,0.0000941315682012297
938,-0.00100469589233398,0.0000835622257533968
939,-0.00110673904418945,0.000110385484856492
940,-0.000970840454101563,0.000130729931312669
941,-0.000977039337158203,0.000118656785439333
942,-0.00114917755126953,0.000120342589650054
943,-0.00123834609985352,0.0000915427997285191
944,-0.00133657455444336,0.0000940348990427878
945,-0.00128746032714844,0.000102029781713444
946,-0.00146341323852539,0.0000971999535083077
947,-0.00153350830078125,0.0000881439645687397
948,-0.001617431640625,0.0000944522817601071
949,-0.0016331672668457,0.000103551641869662
950,-0.00189065933227539,0.00010963522234497
951,-0.00205278396606445,0.0000918453230107223
952,-0.00206422805786133,0.0000922676820774506
953,-0.0022435188293457,0.000108858905087045
954,-0.00221729278564453,0.000117247654208081
955,-0.00259685516357422,0.000134027720471241
956,-0.00281572341918945,0.000113615396413792
957,-0.00262355804443359,0.00011271526732908
958,-0.00299787521362305,0.000103188706848214
959,-0.00290679931640625,0.000124179236060462
960,-0.0031590461730957,0.000124124293544952
961,-0.00309371948242187,0.000113807354981777
962,-0.00308132171630859,0.0000994911332066615
963,-0.00304222106933594,0.0000854257461972123
964,-0.00293684005737305,0.0000931066525547378
965,-0.00300979614257812,0.000111734657878552
966,-0.00294256210327148,0.000110839769178525
967,-0.0029301643371582,0.000127934618665573
968,-0.00300073623657227,0.00012253508898095
969,-0.00275516510009766,0.000140271195824929
970,-0.00267219543457031,0.000133735609731906
971,-0.00292873382568359,0.000169606627000173
972,-0.00271320343017578,0.000184229539653016
973,-0.00267362594604492,0.000131879745154454
974,-0.00261354446411133,0.000101466644884265
975,-0.00216197967529297,0.000138476663348668
976,-0.00221729278564453,0.000149422841071316
977,-0.00214576721191406,0.000189111476814907
978,-0.00215482711791992,0.000176189878145464
979,-0.00246572494506836,0.000128961312480215
980,-0.00182151794433594,0.000127389614819005
981,-0.00179052352905273,0.000141507402099447
982,-0.00149726867675781,0.000190262208859159
983,-0.00149774551391602,0.000177239800832761
984,-0.00171375274658203,0.000146058576347936
985,-0.00135564804077148,0.000147785675112222
986,-0.00128936767578125,0.0000914931103150288
987,-0.00115442276000977,0.000137464800653608
988,-0.00126266479492187,0.000167838551584589
989,-0.00106000900268555,0.000151909871529419
990,-0.000695705413818359,0.000161077822347392
991,-0.000821590423583984,0.000202358813627241
992,-0.00093841552734375,0.000246749292431583
993,-0.000576972961425781,0.000277097781843301
994,-0.00040435791015625,0.000222400449327826
995,-0.000291824340820312,0.000209686937748899
996,0.0000805854797363281,0.00017534126410726
997,-0.000215530395507812,0.000211732880865942
998,-0.000345706939697266,0.000295164897086751
999,-0.000362873077392578,0.000176900801859695
1000,-0.0000314712524414062,0.00022710267622408
1001,0.000131130218505859,0.000152704075449073
1002,0.000232219696044922,0.000159494723450617
1003,0.000133037567138672,0.00027182227570976
1004,0.000127315521240234,0.000234654273847157
1005,0.000152111053466797,0.000299945354855477
1006,0.000452995300292969,0.00021698972489679
1007,0.000649452209472656,0.000144250924717531
1008,0.000253677368164062,0.000194385871091132
1009,0.000321388244628906,0.00021321820316948
1010,0.000240325927734375,0.000236622722557545
1011,0.00099945068359375,0.000234537968253821
1012,0.000569820404052734,0.000251661624115914
1013,0.000841617584228516,0.000242176950469133
1014,0.000760078430175781,0.000196595744731524
1015,0.000821113586425781,0.000231536726463219
1016,0.000730037689208984,0.000282429324476572
1017,0.00118207931518555,0.00024005708340671
1018,0.000880241394042969,0.000235979960166436
1019,0.00118875503540039,0.000277609335306705
1020,0.00118207931518555,0.000343375731725238
1021,0.000429630279541016,0.000258957261630412
1022,0.000717639923095703,0.000203470388078225
1023,0.00146293640136719,0.000296965055625591
1024,0.00126504898071289,0.000359908145789044
1025,0.000910758972167969,0.000302403494149562
1026,0.000822067260742188,0.000412137392750418
1027,0.00103330612182617,0.000352513943118054
1028,0.0011286735534668,0.000304172774951928
1029,0.0014796257019043,0.000385199433574405
1030,0.00124597549438477,0.000320025591753606
1031,0.000642299652099609,0.000364188730398058
1032,0.000750541687011719,0.000336283468547661
1033,0.00105381011962891,0.000467327662082323
1034,0.000546455383300781,0.000417199542241475
1035,0.000834465026855469,0.00034113291556408
1036,0.000786781311035156,0.000476890560974456
1037,0.00112390518188477,0.000504348568146924
1038,0.00113821029663086,0.000407280347780437
1039,0.000210762023925781,0.000449479159776103
1040,0.0014801025390625,0.000465799373180074
1041,0.000921726226806641,0.000373587230717628
1042,0.000569820404052734,0.000391801166083055
1043,0.0014653205871582,0.000356383383609822
1044,0.000225067138671875,0.000319388361952736
1045,0.00131559371948242,0.000445013499056876
1046,0.000865459442138672,0.000523017114885201
1047,0.000938892364501953,0.000525058124402823
1048,0.0010523796081543,0.000522153888924215
1049,0.00139617919921875,0.000548468040637556
1050,0.000643730163574219,0.000611851755873076
1051,-0.000203132629394531,0.000549568012683375
1052,0.000125885009765625,0.000668922148950872
1053,0.000337600708007812,0.000720240705640011
1054,0.000552654266357422,0.00065644943876709
1055,0.000712394714355469,0.000445552721398243
1056,0.000648975372314453,0.000533034843920979
1057,0.000315666198730469,0.000613964829673178
1058,-0.000475883483886719,0.000698141711014977
1059,0.000990390777587891,0.000626226447452723
1060,-0.000220775604248047,0.000793677079425596
1061,-0.00017547607421875,0.00101728757162394
1062,-0.0000643730163574219,0.000851933872979602
1063,0.00175237655639648,0.000655673113366441
1064,0.000607967376708984,0.000568069777495919
1065,0.000242710113525391,0.000805217445734451
1066,-0.000442028045654297,0.000815328517508283
1067,0.0013885498046875,0.000698787569582544
1068,0.000739097595214844,0.000847910327671914
1069,0.00128269195556641,0.000673993425549484
1070,0.000748157501220703,0.000869700781729011
1071,0.000351905822753906,0.00102344851269512
1072,0.00166606903076172,0.00114677185308062
1073,0.000673294067382813,0.000954757075771296
1074,0.000195503234863281,0.000869382813817581
1075,0.000440120697021484,0.00111514504337118
1076,0.000369548797607422,0.00097986497374263
1077,0.00038909912109375,0.000732918412062307
1078,-0.00143194198608398,0.0010030260271939
1079,0.00118541717529297,0.0012433572560615
1080,-0.0000596046447753906,0.00159361232602367
1081,0.00112342834472656,0.00140480337969774
1082,-0.000340938568115234,0.00104711876529216
1083,0.000393867492675781,0.00124870605850615
1084,0.00106287002563477,0.0013404305566037
1085,0.000678539276123047,0.001028356350433
1086,0.00365543365478516,0.0016544003842701
1087,-0.0009918212890625,0.00163468568759118
1088,0.000989913940429688,0.00198111740189048
1089,-0.000677108764648438,0.00133703914751005
1090,-0.000744342803955078,0.00194017768033599
1091,0.0000691413879394531,0.00156891222339196
1092,-0.000543594360351563,0.00149060485454358
1093,0.00115871429443359,0.00144229864651032
1094,-0.00121831893920898,0.00134768454895162
1095,0.00000524520874023438,0.00171815590994747
1096,-0.0024261474609375,0.00238901183921037
1097,0.0000128746032714844,0.00201311951543848
1098,-0.00103950500488281,0.00176012628650855
1099,0.00266170501708984,0.00237385763439062
1100,0.00171756744384766,0.00224013367071518
