Wavelength (nm),Absorbance (AU),Std.Dev.
190,0.287892818450928,0.000119801006428693
191,0.271235466003418,0.0000826704175414197
192,0.258215427398682,0.0000539690354039036
193,0.246822357177734,0.0000609885723441354
194,0.237423896789551,0.0000437678331153055
195,0.229548454284668,0.0000428265075970809
196,0.223069667816162,0.0000625656870531339
197,0.217404842376709,0.0000541246933886059
198,0.212106227874756,0.0000379505165139592
199,0.207196235656738,0.0000272366487997877
200,0.202596664428711,0.0000285764335660412
201,0.198317050933838,0.0000408246131763534
202,0.194236278533936,0.0000444879102441957
203,0.190211772918701,0.0000401124645749178
204,0.186065673828125,0.0000511150751199505
205,0.181699752807617,0.0000583672834657049
206,0.176917552947998,0.0000395688656534667
207,0.171756267547607,0.0000424927193777189
208,0.166118621826172,0.000059039295765996
209,0.160134792327881,0.0000606764744590258
210,0.153806686401367,0.0000597703537597366
211,0.14686918258667,0.0000551875926505414
212,0.139717578887939,0.0000434393155160551
213,0.13226842880249,0.0000415990889368935
214,0.124637603759766,0.0000414512487375911
215,0.116812229156494,0.0000523989581748984
216,0.109151363372803,0.000042417070782673
217,0.101348400115967,0.000039292076252847
218,0.0938763618469238,0.0000360666715571417
219,0.0864243507385254,0.0000364265826899511
220,0.0793447494506836,0.0000431550800269986
221,0.0725555419921875,0.000035537166978117
222,0.0662322044372559,0.0000387112780908546
223,0.0601644515991211,0.0000342186730472382
224,0.0548100471496582,0.0000354522895513298
225,0.0497207641601563,0.0000406599802526728
226,0.0451564788818359,0.0000398051938486193
227,0.0410304069519043,0.0000307412075000468
228,0.0373106002807617,0.0000356577283779906
229,0.0340242385864258,0.0000383490929849302
230,0.0311169624328613,0.000040284979936399
231,0.0285367965698242,0.0000502944543593621
232,0.0262131690979004,0.000049859703974839
233,0.0242180824279785,0.0000532084891702575
234,0.0225191116333008,0.0000419711514077996
235,0.0209922790527344,0.0000399306636439424
236,0.019711971282959,0.0000526035895176758
237,0.0186052322387695,0.000054557756416731
238,0.017707347869873,0.0000370178915995698
239,0.0168404579162598,0.0000340788481428755
240,0.0161709785461426,0.000038061941267972
241,0.0156331062316895,0.0000387582382240805
242,0.0151009559631348,0.0000389834426807549
243,0.014683723449707,0.0000365200922333329
244,0.0143280029296875,0.0000245101952711611
245,0.0139923095703125,0.0000339040943870097
246,0.0137200355529785,0.0000378402658698873
247,0.0134811401367187,0.0000324468328303553
248,0.0132780075073242,0.0000392768830797897
249,0.013056755065918,0.0000457241833792635
250,0.0128641128540039,0.0000323731696553908
251,0.0126452445983887,0.0000359854126705262
252,0.0124602317810059,0.0000323880912012016
253,0.0123414993286133,0.0000313735659591598
254,0.0121583938598633,0.0000324433288527177
255,0.0120797157287598,0.0000409191855486392
256,0.011967658996582,0.0000417293816558788
257,0.0118842124938965,0.0000371191006055794
258,0.0117311477661133,0.000040245451631456
259,0.0116715431213379,0.0000422041293003827
260,0.0115489959716797,0.0000476383947525407
261,0.0114789009094238,0.0000455747575437755
262,0.0114102363586426,0.0000423198014887532
263,0.0113019943237305,0.0000421792048704758
264,0.0112214088439941,0.0000520615779449783
265,0.0111222267150879,0.0000489612158774473
266,0.0109915733337402,0.0000435255955018769
267,0.0108952522277832,0.0000467665199056809
268,0.0107998847961426,0.0000448721247868601
269,0.0107560157775879,0.0000480459284428703
270,0.0106353759765625,0.0000517977737960826
271,0.0104761123657227,0.0000416332363781945
272,0.010352611541748,0.0000406292121966186
273,0.0102415084838867,0.0000515568807509638
274,0.0101256370544434,0.0000453559624368466
275,0.0100336074829102,0.0000444303753101202
276,0.00991201400756836,0.0000429768915702873
277,0.00972461700439453,0.0000455210939142712
278,0.00962209701538086,0.0000450466021636829
279,0.00952291488647461,0.0000327511116437816
280,0.0093846321105957,0.0000449240330250316
281,0.00922727584838867,0.0000510627811928146
282,0.00909566879272461,0.0000385317175483451
283,0.00897216796875,0.0000373899323810931
284,0.00875711441040039,0.0000396957984456851
285,0.00859832763671875,0.0000409747143915955
286,0.00838613510131836,0.0000529772306074368
287,0.00824785232543945,0.0000401280496596703
288,0.00809192657470703,0.00003365335462302
289,0.00788593292236328,0.0000353044706143703
290,0.00773239135742188,0.0000365558741380744
291,0.00760841369628906,0.0000323907237016084
292,0.00742673873901367,0.0000306309887485941
293,0.00727033615112305,0.0000285445890835868
294,0.00704526901245117,0.0000259859845754778
295,0.00692462921142578,0.0000297311887585242
296,0.00676298141479492,0.0000265207851179826
297,0.00668811798095703,0.0000314034468461053
298,0.00667619705200195,0.0000283868333170647
299,0.00648260116577148,0.0000427494551588085
300,0.00631284713745117,0.0000568387092353016
301,0.0062108039855957,0.0000366800610825073
302,0.00617647171020508,0.0000442945532249694
303,0.00613737106323242,0.0000312073436123971
304,0.00594282150268555,0.0000408127762211572
305,0.00587177276611328,0.000042770060350199
306,0.00577688217163086,0.0000534089547292687
307,0.00568389892578125,0.0000585267837878718
308,0.00562858581542969,0.0000511473149130246
309,0.00555515289306641,0.0000691841256485581
310,0.00542163848876953,0.0000583770215713611
311,0.00529766082763672,0.0000419528637662222
312,0.00526666641235352,0.0000448556535343892
313,0.00515651702880859,0.0000558062472537435
314,0.00511884689331055,0.0000545139792901146
315,0.00511074066162109,0.0000499701681377757
316,0.005035400390625,0.0000413228302827707
317,0.00491809844970703,0.0000511150751199505
318,0.00487661361694336,0.0000621811012359235
319,0.0047760009765625,0.0000699148001118404
320,0.00467252731323242,0.000046966644678032
321,0.00468778610229492,0.0000471936313267392
322,0.00460243225097656,0.000052073586906761
323,0.00448703765869141,0.0000466509071134195
324,0.00445890426635742,0.0000603052920718968
325,0.00440263748168945,0.000055411678490959
326,0.00428676605224609,0.0000501586455038348
327,0.00425004959106445,0.000047774228974408
328,0.00419044494628906,0.0000561423866239386
329,0.004058837890625,0.0000433292561456433
330,0.00394773483276367,0.0000454523620406817
331,0.00392866134643555,0.0000413138879571202
332,0.00385665893554687,0.0000384038975334864
333,0.00381231307983398,0.00004539730161824
334,0.00371503829956055,0.0000546556067386795
335,0.00363731384277344,0.0000414800367104201
336,0.00367259979248047,0.0000598758250678115
337,0.00367593765258789,0.0000751589754634246
338,0.00354194641113281,0.0000556062461631111
339,0.0035090446472168,0.0000510983913832163
340,0.00346040725708008,0.0000422068229517321
341,0.00336313247680664,0.0000515094498004694
342,0.0033106803894043,0.000064072082142908
343,0.00324392318725586,0.0000663660716557101
344,0.00308561325073242,0.000052650034797388
345,0.00315666198730469,0.000047144222100461
346,0.00307703018188477,0.0000391993788043301
347,0.00299549102783203,0.0000429630014925419
348,0.00290346145629883,0.0000485988071218479
349,0.00285005569458008,0.0000487972418900828
350,0.00285005569458008,0.0000520626697832407
351,0.00273990631103516,0.0000491570313970743
352,0.00268363952636719,0.0000439402271845083
353,0.00260066986083984,0.0000359688227951929
354,0.0025634765625,0.0000491142272949219
355,0.00260162353515625,0.0000595578964013349
356,0.00255155563354492,0.0000610016194236181
357,0.002410888671875,0.0000595378501472802
358,0.00240087509155273,0.0000413984187941202
359,0.00231266021728516,0.000039515676839786
360,0.0022130012512207,0.0000481971280800608
361,0.00213909149169922,0.0000607654079420221
362,0.00218391418457031,0.0000568407093658287
363,0.00207853317260742,0.0000510148908567218
364,0.00195455551147461,0.0000565620128736946
365,0.00207996368408203,0.0000610965926198143
366,0.00193119049072266,0.0000623344907707554
367,0.00195407867431641,0.0000715605332451658
368,0.00181913375854492,0.0000629623699629608
369,0.00180196762084961,0.0000584782017393337
370,0.00183916091918945,0.0000518054550997691
371,0.00188684463500977,0.0000649916976906199
372,0.00173568725585937,0.0000885557342357742
373,0.00173187255859375,0.0000724808165731863
374,0.00183200836181641,0.0000720513411236729
375,0.00179576873779297,0.0000704251516323765
376,0.00160121917724609,0.0000536553053446207
377,0.00162410736083984,0.0000490957058547253
378,0.00184392929077148,0.0000612953718727929
379,0.00174283981323242,0.000103924249256627
380,0.00157737731933594,0.000077580980676051
381,0.00155401229858398,0.0000660828178164545
382,0.00159263610839844,0.0000614972059824451
383,0.00150489807128906,0.0000800788347100873
384,0.00148630142211914,0.0000669799222914629
385,0.00154399871826172,0.000100967945963918
386,0.00143909454345703,0.0000922356408357635
387,0.00165987014770508,0.0000607915950918922
388,0.00150775909423828,0.0000713042969012816
389,0.00128269195556641,0.0000915626679435612
390,0.00140047073364258,0.0000934965685257513
391,0.00153207778930664,0.0000767618967920371
392,0.00147581100463867,0.0000741385947409626
393,0.00124740600585937,0.0000737557806885625
394,0.0011744499206543,0.000077588307308737
395,0.00112295150756836,0.0000885557342357742
396,0.00114202499389648,0.0000642227255147291
397,0.00139093399047852,0.0000742259491664806
398,0.00129079818725586,0.0000678567925958846
399,0.00113487243652344,0.0000513259330522621
400,0.00119352340698242,0.0000587855322866431
401,0.00109195709228516,0.0000935913643066232
402,0.00115060806274414,0.0000806221511738286
403,0.0012354850769043,0.0000813451209523284
404,0.00123023986816406,0.0000815224212074828
405,0.00133562088012695,0.0000920011545691126
406,0.000848770141601563,0.0000977806885452742
407,0.0011749267578125,0.0000925506407395294
408,0.00101518630981445,0.0000627380721380391
409,0.00101089477539062,0.0000862310924668128
410,0.000905990600585938,0.0000928621236826943
411,0.0010676383972168,0.000100337687840987
412,0.00103139877319336,0.0000732655289332154
413,0.00105047225952148,0.0000903049513783545
414,0.000841140747070313,0.0000789089861930371
415,0.000872135162353516,0.0000605639507648751
416,0.000911235809326172,0.000075009076776366
417,0.00102472305297852,0.0000917710245034745
418,0.000976085662841797,0.0000675124632785312
419,0.000933647155761719,0.0000972186655988667
420,0.000946998596191406,0.0000827336517116406
421,0.000946044921875,0.0000683392661184182
422,0.000797748565673828,0.0000663403712823436
423,0.000699520111083984,0.0000617149612116023
424,0.000609397888183594,0.0000575483385482882
425,0.000727176666259766,0.0000594537732901831
426,0.000831127166748047,0.0000622870534227448
427,0.000878810882568359,0.0000664636424408948
428,0.000589847564697266,0.0000738004676243124
429,0.000935554504394531,0.0000480482945963003
430,0.000742435455322266,0.0000392124276242221
431,0.000452518463134766,0.0000455797462972844
432,0.000579357147216797,0.0000741263262327302
433,0.000788211822509766,0.0000818619834620343
434,0.00063323974609375,0.0000558612237762736
435,0.000464439392089844,0.0000679120580802152
436,0.00069427490234375,0.0000760207649839215
437,0.000519275665283203,0.0000642651961854227
438,0.000588417053222656,0.0000621902421549344
439,0.00054931640625,0.0000608710227860754
440,0.000512599945068359,0.0000653232100179036
441,0.000842094421386719,0.000071011924167565
442,0.000341415405273437,0.0000692136978344132
443,0.000535964965820313,0.0000508977599817759
444,0.000401496887207031,0.0000456968252209127
445,0.000376701354980469,0.0000665029725730084
446,0.000442981719970703,0.0000683309477852223
447,0.000334262847900391,0.0000592833442151001
448,0.000329017639160156,0.000055458846974316
449,0.000375747680664062,0.0000548611460128392
450,0.000237941741943359,0.0000611151975085246
451,0.000262260437011719,0.0000622797521622084
452,0.000305652618408203,0.0000793830045721953
453,0.000287055969238281,0.0000933310532793358
454,0.0003814697265625,0.0000690130160151647
455,0.000288963317871094,0.0000490493716561674
456,0.000333786010742187,0.0000657568641732857
457,0.000353336334228516,0.0000777346949474901
458,0.000161647796630859,0.0000588512490197874
459,0.000146389007568359,0.0000395544973514375
460,0.000215530395507812,0.0000408802704798752
461,0.000244617462158203,0.0000640206050700843
462,0.000155448913574219,0.0000571399360563791
463,0.000268459320068359,0.0000536213932383092
464,0.000213623046875,0.0000497272803125495
465,0.000143051147460937,0.0000562020915914824
466,-0.0000529289245605469,0.0000727469744796389
467,0.0000891685485839844,0.0000891239136143262
468,-0.0000844001770019531,0.0000632847526601557
469,0.0000448226928710938,0.00007294829333215
470,0.00000286102294921875,0.000083161275316588
471,0.000138282775878906,0.0000752360794443681
472,0.000154018402099609,0.0000748239400889762
473,0.0000300407409667969,0.0000505132397082582
474,0.000102043151855469,0.0000433161352126151
475,0.000120162963867187,0.0000700739744475225
476,-0.00000715255737304688,0.000105597631560026
477,-0.000030517578125,0.0000679522229283278
478,0.0000619888305664063,0.0000617407456126486
479,0.0000519752502441406,0.0000746307279453806
480,0.0000767707824707031,0.0000876265314828674
481,-0.0000457763671875,0.0000527557340415512
482,-0.0000271797180175781,0.0000599327593041941
483,0.0000386238098144531,0.0000778472258438826
484,-0.000252246856689453,0.0000900174596700324
485,0.00219345092773437,0.0000707279876246069
486,-0.00110292434692383,0.0000590489230462501
487,-0.000376701354980469,0.0000900654386827308
488,-0.000272750854492187,0.000098274738555372
489,-0.0000715255737304688,0.000100710897693207
490,-0.0000581741333007813,0.0000721049683633863
491,-0.000118732452392578,0.0000844271126562426
492,-0.000130176544189453,0.0000871556065276784
493,-0.000165939331054687,0.000081551701433597
494,-0.00008392333984375,0.0000842883020525341
495,-0.00000333786010742187,0.0000867738822225794
496,-0.000131607055664062,0.0000755617652259064
497,-0.000186443328857422,0.0000547647009115722
498,-0.0000395774841308594,0.0000598102836956018
499,0.0000252723693847656,0.0000410647886141489
500,-0.0001678466796875,0.0000577475195215185
501,0.0000519752502441406,0.0000632236444243134
502,-0.000133037567138672,0.0000670376065737395
503,-0.000139713287353516,0.000060667105455919
504,-0.000174045562744141,0.000082106041819201
505,-0.000057220458984375,0.0000610928709621724
506,-0.000178813934326172,0.0000617941219323783
507,-0.000164985656738281,0.0000554003931210823
508,-0.0000896453857421875,0.0000508418885297978
509,-0.000157356262207031,0.0000539574483015354
510,-0.000185489654541016,0.0000617149612116023
511,-0.000125408172607422,0.0000870329054077585
512,-0.000307083129882812,0.0000912766466057497
513,-0.000221729278564453,0.0000798356992204908
514,-0.000149250030517578,0.0000643889089675535
515,-0.000200748443603516,0.000055732860865292
516,-0.000286579132080078,0.0000636055013906929
517,-0.000170230865478516,0.0000524076360134334
518,-0.00020599365234375,0.0000677343784432509
519,-0.000264167785644531,0.0000853884749274638
520,-0.000196933746337891,0.0000688381781420194
521,-0.000232696533203125,0.0000670308227641113
522,-0.000279903411865234,0.0000727266556233714
523,-0.000195503234863281,0.0000760969957763658
524,-0.00018310546875,0.0000814093845439169
525,-0.000226497650146484,0.000074267291716488
526,-0.000244140625,0.0000579862217466746
527,-0.000193119049072266,0.0000632685826945578
528,-0.000181674957275391,0.0000508206412726136
529,-0.000247478485107422,0.000070326610811564
530,-0.000284671783447266,0.0000863773105971367
531,-0.000288486480712891,0.0000842707660171573
532,-0.000204563140869141,0.0000597703537597366
533,-0.000231266021728516,0.0000486081633922569
534,-0.000243663787841797,0.0000728843685530734
535,-0.000344276428222656,0.0000763252313362433
536,-0.000433444976806641,0.0000857498530037147
537,-0.000186920166015625,0.0000665217744161728
538,-0.000244617462158203,0.0000587768289777908
539,-0.000260353088378906,0.0000543678009557313
540,-0.000312328338623047,0.0000730043762550531
541,-0.000322818756103516,0.0000665559459776889
542,-0.000231742858886719,0.0000689058567220927
543,-0.0002288818359375,0.000058805834998035
544,-0.000369071960449219,0.000052406551362199
545,-0.000264644622802734,0.0000535789729213665
546,-0.000262260437011719,0.0000640791791834862
547,-0.000192642211914062,0.0000682660299994403
548,-0.000347137451171875,0.0000748087446337945
549,-0.000258445739746094,0.0000727063310887003
550,-0.000300407409667969,0.0000534972191128096
551,-0.000193595886230469,0.0000486771103476154
552,-0.000244617462158203,0.000057601652397352
553,-0.000263214111328125,0.0000560156828139817
554,-0.000272274017333984,0.0000718933821027746
555,-0.000221729278564453,0.0000747388057478435
556,-0.000299930572509766,0.0000495004284164692
557,-0.000322818756103516,0.0000595741193807631
558,-0.000305652618408203,0.0000535386424881609
559,-0.000236034393310547,0.0000666174106169026
560,-0.000250816345214844,0.0000614694699709997
561,-0.000243663787841797,0.0000503520622023543
562,-0.000320911407470703,0.0000597008881794097
563,-0.000349998474121094,0.0000514520330325785
564,-0.000223159790039062,0.0000484945968651081
565,-0.000262260437011719,0.0000485098325496979
566,-0.000196456909179687,0.000055881571725725
567,-0.000250816345214844,0.0000669850140792457
568,-0.000292301177978516,0.0000598131348138645
569,-0.000179767608642578,0.000057040368238248
570,-0.000187397003173828,0.0000732593218311639
571,-0.000233173370361328,0.0000750439284244766
572,-0.000492095947265625,0.0000753810024011476
573,-0.0000848770141601563,0.0000712500670288881
574,-0.000211715698242187,0.0000578232643266768
575,-0.000418663024902344,0.0000666532388146691
576,-0.0000782012939453125,0.0000561383365311168
577,-0.000158309936523437,0.0000406949157154893
578,-0.000363826751708984,0.0000368825142412769
579,-0.000266075134277344,0.0000365791913055026
580,-0.0000586509704589844,0.0000442675956180985
581,0.0000376701354980469,0.0000431675915137156
582,-0.0005645751953125,0.0000537727722050071
583,-0.000507831573486328,0.0000628141336799801
584,-0.0000109672546386719,0.000054519192696074
585,-0.000172138214111328,0.0000547802680579401
586,-0.000412464141845703,0.000049251761963062
587,-0.000080108642578125,0.0000518098439048515
588,-0.000464439392089844,0.0000459783291065851
589,-0.000401496887207031,0.0000455348278394333
590,-0.000242710113525391,0.000042048954132837
591,-0.000389575958251953,0.0000371282877438949
592,0.0000195503234863281,0.0000369618009423331
593,-0.000343799591064453,0.0000470524970409728
594,-0.000275135040283203,0.0000451424031943357
595,-0.000286579132080078,0.000047423127520325
596,-0.000482559204101563,0.0000445606811847142
597,-0.000212192535400391,0.0000390519152490197
598,-0.000199317932128906,0.0000460869958790216
599,-0.000243663787841797,0.0000505233665481967
600,-0.000310897827148437,0.0000555203108599357
601,-0.000370025634765625,0.0000539005300342761
602,-0.000260353088378906,0.0000503159238136663
603,-0.000306129455566406,0.0000527654304995456
604,-0.000435829162597656,0.0000548186481180946
605,-0.000230789184570312,0.0000448125462511853
606,-0.000402927398681641,0.0000360784901082853
607,-0.000304222106933594,0.0000409677774022977
608,-0.000432491302490234,0.0000614824150000936
609,-0.000413417816162109,0.0000604653207573519
610,-0.000331878662109375,0.0000387142147680012
611,-0.000493049621582031,0.0000397830530671224
612,-0.000430583953857422,0.0000587245820372312
613,-0.000351905822753906,0.0000618823677780263
614,-0.000468730926513672,0.0000537949668110664
615,-0.000299453735351562,0.0000431583728751555
616,-0.000516414642333984,0.0000505863324453933
617,-0.000430583953857422,0.000048841487650487
618,-0.000447273254394531,0.0000456918492503833
619,-0.000418663024902344,0.0000469775360555661
