Wavelength (nm),Absorbance (AU),Std.Dev.
190,0.222994327545166,0.000114930615160623
191,0.223334789276123,0.0000915129893180478
192,0.222176551818848,0.0000517186998861551
193,0.220590591430664,0.0000654240738583195
194,0.218388080596924,0.0000576213857492147
195,0.216095924377441,0.00005192929607415
196,0.21369457244873,0.0000613806305123559
197,0.211074829101562,0.0000395120804186782
198,0.208125591278076,0.0000478526936064083
199,0.204813957214355,0.0000457602214154876
200,0.201426982879639,0.000057259188896226
201,0.19809103012085,0.0000476013903434504
202,0.19480037689209,0.0000525852161153957
203,0.191493511199951,0.000050906693723559
204,0.187961101531982,0.0000484910802580865
205,0.184155464172363,0.0000471430163504614
206,0.179893493652344,0.0000465679764381042
207,0.175251960754395,0.0000536849608650383
208,0.170074939727783,0.000051433248263592
209,0.164639472961426,0.0000407639996020754
210,0.158796787261963,0.0000393564012650821
211,0.152422904968262,0.0000395279022239611
212,0.145912647247314,0.0000337621249096644
213,0.139102935791016,0.0000513668941700877
214,0.132106781005859,0.000042722187867684
215,0.125035285949707,0.000046987215160656
216,0.117986679077148,0.0000407116740891779
217,0.11093807220459,0.0000481204063855853
218,0.104048252105713,0.000040729821212888
219,0.0973663330078125,0.0000486257015469615
220,0.0909628868103027,0.0000546358426132193
221,0.0848116874694824,0.0000388549142519218
222,0.0791130065917969,0.0000461486243677862
223,0.0736823081970215,0.0000550875916999745
224,0.0686841011047363,0.000048848470159658
225,0.0639858245849609,0.0000440229431392358
226,0.0597538948059082,0.0000412291838096948
227,0.0558328628540039,0.0000383765050423391
228,0.052281379699707,0.0000427860059413393
229,0.0491271018981934,0.0000401259247772857
230,0.0462498664855957,0.0000385088445845985
231,0.043724536895752,0.0000532042157392675
232,0.0413918495178223,0.0000464897888995599
233,0.0392546653747559,0.0000417647836240385
234,0.0374441146850586,0.0000296157720315083
235,0.0358052253723145,0.0000262189985696094
236,0.034430980682373,0.0000312783004975233
237,0.0331625938415527,0.0000397494612624501
238,0.0321207046508789,0.0000529643533027722
239,0.0312275886535645,0.0000488019012276175
240,0.0303902626037598,0.0000425368412762205
241,0.0295596122741699,0.0000324012515644113
242,0.0289764404296875,0.0000352085398520941
243,0.0283703804016113,0.0000409629208108039
244,0.0278244018554687,0.0000443291889167638
245,0.0273442268371582,0.0000499747181189495
246,0.026923656463623,0.0000393224449882214
247,0.0265412330627441,0.0000336229373241505
248,0.0261473655700684,0.0000397208501155324
249,0.0258216857910156,0.0000408823561547563
250,0.0255899429321289,0.0000455735102700703
251,0.0252485275268555,0.0000456881169168373
252,0.0249814987182617,0.0000402051775539519
253,0.0247411727905273,0.0000353696191990904
254,0.0245308876037598,0.0000416537114059293
255,0.0242743492126465,0.0000440822993635267
256,0.0240964889526367,0.0000387303625120894
257,0.0239057540893555,0.0000518931606776068
258,0.0237598419189453,0.0000606567978810674
259,0.0235204696655273,0.0000441621750043442
260,0.023341178894043,0.0000634999587425872
261,0.0232911109924316,0.0000667640137603269
262,0.0230255126953125,0.0000579077452974711
263,0.022885799407959,0.000046987215160656
264,0.0226163864135742,0.000050203955942617
265,0.0224766731262207,0.0000374043723168972
266,0.0222644805908203,0.0000454586146870515
267,0.0220589637756348,0.0000738374294635033
268,0.0218696594238281,0.0000791377313069334
269,0.0217075347900391,0.0000608074889307053
270,0.0214595794677734,0.0000592277052124948
271,0.0212974548339844,0.0000549625932060959
272,0.0210270881652832,0.000056363685057782
273,0.0208659172058105,0.0000504546892792179
274,0.0206050872802734,0.0000592641642527051
275,0.0203495025634766,0.0000518109410480335
276,0.020174503326416,0.0000515546756278581
277,0.0198779106140137,0.0000553685765213546
278,0.0196795463562012,0.0000458446133036316
279,0.0194191932678223,0.0000592708779455447
280,0.0191798210144043,0.0000602647468911531
281,0.0188841819763184,0.0000473163279983959
282,0.0186433792114258,0.0000560288733601434
283,0.0183930397033691,0.0000455809934003476
284,0.0181536674499512,0.0000510316018922497
285,0.0178823471069336,0.0000319026866376919
286,0.0175724029541016,0.0000351366221233329
287,0.0174283981323242,0.0000510260321551701
288,0.0170998573303223,0.0000529901047827441
289,0.016852855682373,0.0000447045961877332
290,0.0165600776672363,0.0000420374619303402
291,0.0162906646728516,0.0000393296721832296
292,0.0160655975341797,0.0000362482499848969
293,0.0158095359802246,0.0000365652027893333
294,0.0155167579650879,0.0000386899805153804
295,0.0152812004089355,0.000036877119638415
296,0.0150208473205566,0.0000295730353681012
297,0.0148868560791016,0.0000325246986919116
298,0.0146141052246094,0.0000372650603483953
299,0.014401912689209,0.0000377214058715174
300,0.0141854286193848,0.0000465997026527057
301,0.0139226913452148,0.0000445019630253605
302,0.0137929916381836,0.0000462003287674811
303,0.0135698318481445,0.0000342352808297376
304,0.0133938789367676,0.0000412505484036066
305,0.0131740570068359,0.0000424164007238171
306,0.0130228996276855,0.0000412980621760838
307,0.0127778053283691,0.0000388870861849287
308,0.0125432014465332,0.0000524878380056554
309,0.0124716758728027,0.0000529052922183234
310,0.0122528076171875,0.0000487529559744415
311,0.0120553970336914,0.0000481534707178006
312,0.0118331909179687,0.0000593073104454171
313,0.0116963386535645,0.0000468915464489472
314,0.0115814208984375,0.00004319786747471
315,0.0113620758056641,0.000053231986908355
316,0.0111846923828125,0.000045493613625673
317,0.0110106468200684,0.0000433764586416727
318,0.0108556747436523,0.0000510683469218837
319,0.0107393264770508,0.0000588155004925856
320,0.0104994773864746,0.0000475512094004477
321,0.0103402137756348,0.0000400379976434093
322,0.0101752281188965,0.0000502265958337081
323,0.0100269317626953,0.0000511517601863611
324,0.00994491577148438,0.0000358342410560856
325,0.00978374481201172,0.0000423775191825749
326,0.00955915451049805,0.0000492032642136862
327,0.00943231582641602,0.0000538804889367124
328,0.00929403305053711,0.0000517000120084407
329,0.00918388366699219,0.0000397122627518788
330,0.00904273986816406,0.0000347347313984238
331,0.00886774063110352,0.0000442431912489457
332,0.00870466232299805,0.0000520244418099658
333,0.0085597038269043,0.0000496082551210968
334,0.00842905044555664,0.0000361359518771885
335,0.00831317901611328,0.0000528300280717858
336,0.0081944465637207,0.0000399904081778365
337,0.00810623168945313,0.0000380006606882034
338,0.00797080993652344,0.0000513115335455383
339,0.00778532028198242,0.0000451323284515456
340,0.00758934020996094,0.0000487727730653804
341,0.0075840950012207,0.0000512527859964281
342,0.00742769241333008,0.0000444470041632563
343,0.00734758377075195,0.0000350872450569631
344,0.00716018676757813,0.0000407932725722043
345,0.00703954696655273,0.0000285142042090529
346,0.00699663162231445,0.0000442624589743567
347,0.00689554214477539,0.0000358477219664833
348,0.00671005249023438,0.0000394321554003651
349,0.00662422180175781,0.0000363132707248056
350,0.00657796859741211,0.0000411519031722859
351,0.00636720657348633,0.0000503893027702763
352,0.00623846054077148,0.000051303778290988
353,0.00622797012329102,0.0000459832740763893
354,0.00604009628295898,0.0000542327592760679
355,0.005950927734375,0.0000448974533759096
356,0.00593090057373047,0.0000408218283192148
357,0.00572299957275391,0.0000513281480024434
358,0.00565433502197266,0.000046892758664974
359,0.00555324554443359,0.0000511639826965995
360,0.0054631233215332,0.0000324573424936077
361,0.00531768798828125,0.0000389002397613893
362,0.00526332855224609,0.0000493727979197745
363,0.00501775741577148,0.0000540753100133294
364,0.00510454177856445,0.0000766655692616154
365,0.00487232208251953,0.0000971227280271612
366,0.00485420227050781,0.0000704267659069949
367,0.00478744506835938,0.000056857707634514
368,0.00464010238647461,0.0000530758528137224
369,0.00461578369140625,0.0000370708307754074
370,0.00455093383789063,0.0000367999675399298
371,0.00448989868164063,0.0000398415922333441
372,0.00459861755371094,0.00006144172143897
373,0.0044560432434082,0.0000841127771809468
374,0.00438928604125977,0.0000614398710912428
375,0.00418519973754883,0.000057660832192821
376,0.00418376922607422,0.0000457887831380355
377,0.00424957275390625,0.0000544712105400317
378,0.0040278434753418,0.0000685286501589263
379,0.00396871566772461,0.000102283515555998
380,0.00397396087646484,0.0000732484581369052
381,0.00379657745361328,0.0000610332935764282
382,0.00385093688964844,0.0000684755426045704
383,0.00370454788208008,0.0000594595095797705
384,0.00367069244384766,0.000046318293520429
385,0.00360202789306641,0.0000654483970137929
386,0.00355100631713867,0.0000623253710078984
387,0.00352764129638672,0.0000464787832283306
388,0.00336837768554687,0.0000534440652544123
389,0.00330162048339844,0.0000766151343093679
390,0.00324296951293945,0.0000807207991609146
391,0.00327682495117187,0.0000780179036607324
392,0.00331211090087891,0.0000614602218523365
393,0.00305795669555664,0.0000678785692187281
394,0.00307607650756836,0.0000871608240203664
395,0.00308370590209961,0.0000684473124564274
396,0.00296592712402344,0.0000585782367688849
397,0.00297307968139648,0.0000742351383895633
398,0.00289154052734375,0.0000751544374716845
399,0.00266885757446289,0.0000768788093005568
400,0.00292873382568359,0.0000674787761034991
401,0.00272512435913086,0.0000725811317516077
402,0.00274181365966797,0.0000871660412007511
403,0.00265407562255859,0.0000683775174171978
404,0.00261878967285156,0.0000627978425337003
405,0.00261545181274414,0.0000896555306396049
406,0.00245428085327148,0.0000925334418998949
407,0.00244951248168945,0.0000882548164463751
408,0.00244903564453125,0.0000644859453693692
409,0.00242328643798828,0.0000641376998037734
410,0.00228977203369141,0.0000521434023722098
411,0.00224733352661133,0.000075653487416358
412,0.00220060348510742,0.0000792023505446861
413,0.00228452682495117,0.000067960587617224
414,0.00217676162719727,0.0000603147172774108
415,0.00209903717041016,0.0000659984658947918
416,0.00210332870483398,0.0000749575272662973
417,0.00215530395507812,0.0000554649964278997
418,0.00211572647094727,0.0000554465460210818
419,0.00197601318359375,0.0000577799937394681
420,0.00202608108520508,0.0000694350877733894
421,0.00197362899780273,0.0000574633291902265
422,0.00180673599243164,0.0000508273518923227
423,0.00180339813232422,0.0000496975507394691
424,0.00167036056518555,0.0000437600399289454
425,0.00180387496948242,0.0000514597659443725
426,0.00174188613891602,0.0000573097962112717
427,0.00168371200561523,0.0000684340236512822
428,0.00147771835327148,0.000053020132368209
429,0.00170564651489258,0.0000432964463575445
430,0.0015263557434082,0.0000450137813198621
431,0.0014653205871582,0.0000509100434725546
432,0.00142192840576172,0.0000397494612624501
433,0.00154399871826172,0.0000417593391208705
434,0.001434326171875,0.0000483337441994875
435,0.00133800506591797,0.0000614435717309746
436,0.00150728225708008,0.0000514884780201393
437,0.00146007537841797,0.0000454048137893306
438,0.00150299072265625,0.0000508988767852512
439,0.0012969970703125,0.0000626020180979779
440,0.00132131576538086,0.0000654171227242308
441,0.00140953063964844,0.0000516648164892301
442,0.00125789642333984,0.0000379699833100658
443,0.00125217437744141,0.0000498277718647179
444,0.00106239318847656,0.0000472838804523624
445,0.00118017196655273,0.0000453145855429334
446,0.00111961364746094,0.0000538256014596926
447,0.00110197067260742,0.0000445172882727959
448,0.00113201141357422,0.0000453872834560043
449,0.00110912322998047,0.0000602100147921165
450,0.00102901458740234,0.0000493831586268678
451,0.00101804733276367,0.0000601420022027113
452,0.00101995468139648,0.0000611449535555721
453,0.00111722946166992,0.0000731552745802198
454,0.000941276550292969,0.0000671934451660001
455,0.000906944274902344,0.0000637429806345025
456,0.000929832458496094,0.0000572224457713753
457,0.000888824462890625,0.0000587768289777908
458,0.000959396362304688,0.0000636019265416586
459,0.000915050506591797,0.0000613176246859684
460,0.000799179077148438,0.0000627869794211726
461,0.000761508941650391,0.0000600379453079597
462,0.000772953033447266,0.0000533791458700574
463,0.000789165496826172,0.0000441969144367885
464,0.000736713409423828,0.0000469436434716758
465,0.0007781982421875,0.0000455160987322179
466,0.000636100769042969,0.000067115571100944
467,0.000586986541748047,0.0000911669750082337
468,0.000679969787597656,0.0000563808271448203
469,0.000612258911132813,0.0000562819363511721
470,0.000625133514404297,0.0000699261817233481
471,0.000553131103515625,0.0000527309461037376
472,0.000710010528564453,0.0000641961670772374
473,0.000569343566894531,0.0000533503858392644
474,0.000607967376708984,0.000058737164251757
475,0.000693321228027344,0.0000743254385696362
476,0.000591754913330078,0.0000580273793966161
477,0.000538349151611328,0.0000512649844202707
478,0.000473976135253906,0.0000506739045625867
479,0.000513076782226563,0.0000560978195206556
480,0.000470161437988281,0.0000628937185391825
481,0.000477790832519531,0.0000719329043766594
482,0.000472545623779297,0.0000798542092053102
483,0.000426769256591797,0.0000682826814693076
484,0.000295162200927734,0.0000645458585437233
485,0.00156784057617187,0.0000527136954461717
486,-0.000235557556152344,0.0000568547083093275
487,0.000460147857666016,0.00005517626144772
488,0.000221729278564453,0.0000590883784958476
489,0.000383853912353516,0.0000761612095113536
490,0.000403404235839844,0.0000684855034079694
491,0.000315666198730469,0.0000572224457713753
492,0.000252246856689453,0.0000671934451660001
493,0.000339984893798828,0.0000594480364470868
494,0.000338077545166016,0.0000640294833800564
495,0.000401973724365234,0.0000617996409894101
496,0.000302791595458984,0.0000762179115031312
497,0.00020599365234375,0.0000743972941800614
498,0.000220298767089844,0.0000557461183323142
499,0.000154972076416016,0.0000658121656194212
500,0.000133514404296875,0.0000730028189778581
501,0.000316619873046875,0.0000691890552239428
502,0.000224590301513672,0.0000624019355921016
503,0.000241279602050781,0.0000616320097186084
504,0.000196933746337891,0.0000481806137303966
505,0.000265598297119141,0.0000514321430635217
506,0.000143051147460937,0.0000553233860599778
507,0.000127315521240234,0.0000528848739696851
508,0.000186443328857422,0.0000433934913689038
509,0.000208377838134766,0.0000545035509821684
510,0.000273227691650391,0.0000590421841149014
511,0.000131607055664062,0.0000542579087580903
512,0.000135898590087891,0.0000371068475495474
513,0.0000352859497070312,0.000043984189403793
514,0.0000700950622558594,0.0000624656677246094
515,0.000137805938720703,0.0000687919203613331
516,0.000148773193359375,0.0000743162605121928
517,0.000109195709228516,0.0000664824554069793
518,0.0000405311584472656,0.0000510705730436747
519,0.0000095367431640625,0.0000594776708469954
520,0.0000505447387695313,0.0000690525404870814
521,0.000072479248046875,0.0000609503469738216
522,-0.00000095367431640625,0.0000729093214766625
523,0.000026702880859375,0.0000668899034636164
524,0.00000715255737304688,0.0000660484014723585
525,-0.0000147819519042969,0.0000458594898686431
526,-0.0000162124633789062,0.0000956388426097385
527,0.0000128746032714844,0.000078614527106779
528,-0.0000400543212890625,0.0000596618377948903
529,0.0000214576721191406,0.000056386876048957
530,-0.0000944137573242188,0.0000453609752532232
531,-0.0000844001770019531,0.0000458941831005671
532,0.0000629425048828125,0.0000413894927996004
533,0.0000324249267578125,0.0000638392180297072
534,-0.0000700950622558594,0.000042669599319793
535,0.0000166893005371094,0.0000396893540319153
536,-0.0000796318054199219,0.000055296665246293
537,-0.00000905990600585938,0.0000542086467404263
538,-0.0000700950622558594,0.0000473727577477257
539,-0.0000615119934082031,0.0000801114808442627
540,-0.0000615119934082031,0.0000731723671158534
541,-0.0000815391540527344,0.0000506211548884972
542,-0.000115394592285156,0.0000485906189073829
543,-0.000104904174804687,0.0000561747768543756
544,-0.000134468078613281,0.0000579685738083621
545,-0.0000729560852050781,0.0000570871867421039
546,-0.000109672546386719,0.0000478811943198382
547,-0.0001220703125,0.0000435673667163865
548,-0.000115394592285156,0.0000584120653093275
549,-0.000121593475341797,0.0000558255970184167
550,-0.000187873840332031,0.0000573296300226325
551,-0.0000538825988769531,0.000048738962588397
552,-0.000187397003173828,0.0000559486674535415
553,-0.000210762023925781,0.0000445249489184383
554,-0.000174045562744141,0.0000524585893242416
555,-0.000156402587890625,0.0000521172325324825
556,-0.000157356262207031,0.0000590344815371164
557,-0.000188827514648437,0.0000457962310926169
558,-0.000220298767089844,0.0000417266571834667
559,-0.000178813934326172,0.0000541803270275277
560,-0.000148773193359375,0.0000607261060432501
561,-0.000204563140869141,0.0000421913321079705
562,-0.000238895416259766,0.0000476228802752261
563,-0.000101566314697266,0.0000506132938503431
564,-0.000231742858886719,0.0000478752580703802
565,-0.000201702117919922,0.0000577465351692242
566,-0.000175952911376953,0.0000676470442219798
567,-0.0000977516174316406,0.0000544064719841097
568,-0.000142097473144531,0.0000544597302828569
569,-0.000112533569335937,0.0000531924620337843
570,-0.000150680541992187,0.000054521277918874
571,-0.000178813934326172,0.0000522697052232541
572,-0.000321388244628906,0.0000647428274544446
573,-0.0000815391540527344,0.0000643412193604918
574,-0.000171661376953125,0.0000427448009989864
575,-0.000256061553955078,0.0000488368320897433
576,-0.0000634193420410156,0.0000486140101468389
577,-0.00018310546875,0.0000400649635618249
578,-0.000325679779052734,0.0000392269212220647
579,-0.000215053558349609,0.0000324003743731674
580,-0.000123023986816406,0.000044912643672964
581,-0.000108242034912109,0.0000480601236160507
582,-0.000372409820556641,0.0000530019033630032
583,-0.000353813171386719,0.0000428795665378242
584,-0.000130176544189453,0.0000383320431771257
585,-0.000248432159423828,0.0000382288411923691
586,-0.000367641448974609,0.0000384112975562026
587,-0.000176429748535156,0.0000395896904288106
588,-0.000313758850097656,0.0000472778692037267
589,-0.000321388244628906,0.0000549967118797442
590,-0.000284671783447266,0.0000605939775147441
591,-0.000353813171386719,0.0000441183901409807
592,-0.000138282775878906,0.0000467422041343155
593,-0.000333786010742187,0.0000425020823957794
594,-0.000226020812988281,0.000036267063143026
595,-0.000348091125488281,0.000043775624914278
596,-0.000362873077392578,0.0000316333928883018
597,-0.000257015228271484,0.0000469254766606582
598,-0.000302314758300781,0.0000516196871602225
599,-0.000268936157226562,0.000051353613063039
600,-0.000299453735351562,0.0000513458641641591
601,-0.000317096710205078,0.000045115952196178
602,-0.000353813171386719,0.0000414478202661049
603,-0.000319480895996094,0.0000447681277494868
604,-0.000397205352783203,0.0000470162405202617
605,-0.000295162200927734,0.0000563051610130456
606,-0.000466346740722656,0.0000424117100154121
607,-0.000408172607421875,0.0000400088824527798
608,-0.000387668609619141,0.0000468648697634369
609,-0.000374317169189453,0.0000449379494241678
610,-0.000271797180175781,0.0000481144996495367
611,-0.00038909912109375,0.0000487249651835741
612,-0.000396728515625,0.000040275101497228
613,-0.000332355499267578,0.0000409268252320093
614,-0.000392913818359375,0.0000350929148065447
615,-0.000405788421630859,0.0000460906959121482
616,-0.000502586364746094,0.0000402292055400808
617,-0.000380992889404297,0.0000447020530471794
618,-0.00040435791015625,0.0000451348473480706
619,-0.000409126281738281,0.0000431781246905975
620,-0.000313758850097656,0.000041538921260907
621,-0.000413417816162109,0.000048907781238396
622,-0.000389575958251953,0.0000520975965258078
