Wavelength (nm),Absorbance (AU),Std.Dev.
190,0.31897497177124,0.000109720219741018
191,0.316903591156006,0.000104395761462547
192,0.314949989318848,0.0000803014161492191
193,0.313002109527588,0.0000691150746754054
194,0.310254573822021,0.0000531967364089797
195,0.307051658630371,0.0000647199957433189
196,0.303947448730469,0.0000679522229283278
197,0.300005435943604,0.0000601401118661704
198,0.294285297393799,0.0000662100027378456
199,0.28721809387207,0.0000471598940451309
200,0.279919624328613,0.0000471827898313006
201,0.273389339447021,0.0000474650614992677
202,0.267838478088379,0.0000460832955488189
203,0.262790679931641,0.0000581809727759954
204,0.257885456085205,0.0000739066830886948
205,0.252738475799561,0.000062605650042871
206,0.247040748596191,0.0000574821211468492
207,0.240801334381104,0.0000503994545130606
208,0.233864784240723,0.0000683974661244443
209,0.22643518447876,0.0000795646772864094
210,0.218647480010986,0.0000653649656563344
211,0.210059642791748,0.0000582581054733256
212,0.201239585876465,0.0000578949828270672
213,0.191858768463135,0.0000667197258524613
214,0.182400703430176,0.0000608654195253477
215,0.172769069671631,0.0000671985207746613
216,0.163305759429932,0.0000498608440291207
217,0.153710842132568,0.0000457540099860749
218,0.144418716430664,0.0000395983043737404
219,0.13530445098877,0.0000394393624911351
220,0.126487731933594,0.0000394660172832907
221,0.117958068847656,0.0000418972745872642
222,0.109964370727539,0.000036514644086984
223,0.102306365966797,0.0000397909108836295
224,0.0953221321105957,0.0000399527226235003
225,0.0885729789733887,0.0000427401463323527
226,0.0823907852172852,0.0000426189465646238
227,0.0766119956970215,0.0000451486987669476
228,0.0712709426879883,0.0000451272902366994
229,0.0663118362426758,0.0000397637591159618
230,0.0617356300354004,0.000040129466185419
231,0.0576777458190918,0.0000396169614958766
232,0.0536599159240723,0.0000535948844748671
233,0.0500459671020508,0.0000508318251466233
234,0.0467877388000488,0.0000345419073284664
235,0.0441031455993652,0.0000368948418001727
236,0.0417609214782715,0.0000509781072959601
237,0.0398597717285156,0.0000448049347783065
238,0.0382833480834961,0.0000386547035711723
239,0.0368075370788574,0.000033049149662441
240,0.0356221199035645,0.000037652023403644
241,0.0346736907958984,0.0000446244176380132
242,0.0337862968444824,0.000041405283634362
243,0.0330061912536621,0.0000443791705272786
244,0.0322842597961426,0.0000381477177070339
245,0.0316905975341797,0.0000385685808420337
246,0.0311341285705566,0.0000386480855593838
247,0.0305757522583008,0.0000311426140939245
248,0.0301165580749512,0.0000370255686339333
249,0.0297150611877441,0.0000483690131538068
250,0.0292496681213379,0.0000323889687251109
251,0.0288629531860352,0.0000336736175578954
252,0.0285992622375488,0.0000328074707365472
253,0.0282907485961914,0.0000323301219609908
254,0.0279674530029297,0.0000310090837247641
255,0.0276966094970703,0.0000364148771134124
256,0.0274443626403809,0.0000366730867291903
257,0.0272088050842285,0.0000274430037803234
258,0.0269465446472168,0.0000355243682861328
259,0.0267930030822754,0.0000382942100032254
260,0.0265617370605469,0.0000520834103614143
261,0.0263957977294922,0.0000460512135655405
262,0.0262179374694824,0.0000449859911337128
263,0.0259056091308594,0.000038392054530342
264,0.0257377624511719,0.0000413901794829043
265,0.0254755020141602,0.0000453947972849534
266,0.0252795219421387,0.0000374840716491879
267,0.0250353813171387,0.0000443227769417658
268,0.0247969627380371,0.0000505447387695313
269,0.0245761871337891,0.0000577081323331409
270,0.0243759155273437,0.0000614768674642536
271,0.024116039276123,0.0000473967500297134
272,0.0238585472106934,0.0000493785541365429
273,0.023643970489502,0.0000466777060804703
274,0.0234088897705078,0.0000431991833395069
275,0.0231261253356934,0.0000439454014929559
276,0.0229101181030273,0.0000363820814631705
277,0.0226626396179199,0.0000349630908616741
278,0.0224857330322266,0.0000425481985973439
279,0.0221858024597168,0.0000294873762244854
280,0.0219311714172363,0.0000270266152590624
281,0.0216703414916992,0.0000425675658574222
282,0.021428108215332,0.0000333803040206281
283,0.0211162567138672,0.0000321352515229662
284,0.0208406448364258,0.0000361485340335159
285,0.0204911231994629,0.0000370869276993252
286,0.0201964378356934,0.0000435804120101832
287,0.0198788642883301,0.0000371902415657815
288,0.0195484161376953,0.0000364577791866465
289,0.0191922187805176,0.0000347183625325768
290,0.0188860893249512,0.0000364733674288444
291,0.0186285972595215,0.000029229378807596
292,0.018315315246582,0.0000264907611733998
293,0.0180449485778809,0.0000281141910653594
294,0.0177059173583984,0.0000287044483728117
295,0.0174031257629395,0.0000354394602065205
296,0.0171456336975098,0.0000324599693777418
297,0.0169053077697754,0.000036263928294447
298,0.0167040824890137,0.0000301474613220659
299,0.0164370536804199,0.0000415183896238041
300,0.0161037445068359,0.0000453609752532232
301,0.0159335136413574,0.0000345007418897814
302,0.0157008171081543,0.0000392073535992017
303,0.0155110359191895,0.0000376406989189313
304,0.0152750015258789,0.0000409101549926026
305,0.0150814056396484,0.0000438171577745824
306,0.0149035453796387,0.0000461695593143394
307,0.014646053314209,0.0000475775012571604
308,0.0144872665405273,0.0000492771464970933
309,0.0142998695373535,0.0000712628307115609
310,0.014101505279541,0.0000626201757159303
311,0.0138616561889648,0.0000513458641641591
312,0.0137042999267578,0.0000409837307223002
313,0.0135245323181152,0.00004492529833036
314,0.0133237838745117,0.0000428530452793878
315,0.0131750106811523,0.0000465875028193546
316,0.0131092071533203,0.0000397265739933797
317,0.012843132019043,0.0000612211374118959
318,0.0127191543579102,0.0000506772696988631
319,0.0125489234924316,0.000030794784572308
320,0.0123205184936523,0.0000415156513050026
321,0.0121560096740723,0.0000431873391129951
322,0.012028694152832,0.0000370455214777237
323,0.0118083953857422,0.0000369587250216402
324,0.0117440223693848,0.0000584704248656057
325,0.0115728378295898,0.0000544409391855296
326,0.0113248825073242,0.0000327380919208883
327,0.0111560821533203,0.0000465337855550526
328,0.0111160278320312,0.0000495406040812407
329,0.0108675956726074,0.0000485590228606799
330,0.0106368064880371,0.0000504129869901271
331,0.0104928016662598,0.0000446511598183516
332,0.0103468894958496,0.0000356609165159001
333,0.0103073120117187,0.0000395803565396254
334,0.0100569725036621,0.0000534706487884795
335,0.0099029541015625,0.0000515502650986663
336,0.00980758666992188,0.0000354923513644048
337,0.00963163375854492,0.0000314242561160954
338,0.0095062255859375,0.0000397744791331722
339,0.00939655303955078,0.0000380649280409407
340,0.00924301147460938,0.0000357484788883204
341,0.00910282135009766,0.0000361162834826476
342,0.00897693634033203,0.000046969065202407
343,0.00881338119506836,0.0000503814055561228
344,0.00865554809570313,0.0000514321430635217
345,0.00856399536132813,0.0000499007295198833
346,0.00837326049804688,0.0000396520991334627
347,0.00828027725219727,0.0000406529895574622
348,0.00806427001953125,0.0000345682274826452
349,0.00797224044799805,0.0000359948891663024
350,0.00782966613769531,0.000050046325757691
351,0.00766468048095703,0.0000503712501757801
352,0.00748252868652344,0.0000525538584274165
353,0.00737428665161133,0.0000432123397836491
354,0.00728559494018555,0.000038713480619599
355,0.00730466842651367,0.0000487552878149772
356,0.00708675384521484,0.0000497249940533674
357,0.00683403015136719,0.0000523142738119575
358,0.00685691833496094,0.0000452907453351247
359,0.00673723220825195,0.0000495256854959511
360,0.00651884078979492,0.0000605066709970826
361,0.00644826889038086,0.000079528947747373
362,0.0064234733581543,0.0000701274926556031
363,0.0062260627746582,0.0000610649512999806
364,0.00614595413208008,0.0000698269367522639
365,0.00607490539550781,0.0000594623775170484
366,0.00595998764038086,0.0000507064248583162
367,0.00587320327758789,0.0000398051938486193
368,0.00565004348754883,0.000055015313147001
369,0.00572395324707031,0.0000586790699830407
370,0.00553607940673828,0.0000495601062244172
371,0.00565624237060547,0.000062080462295015
372,0.00546073913574219,0.000086104433307336
373,0.00554609298706055,0.0000752255012241937
374,0.00551414489746094,0.00007319877500218
375,0.00525569915771484,0.0000881645987270533
376,0.00522565841674805,0.0000629533411581588
377,0.00518894195556641,0.0000461005612153246
378,0.00533533096313477,0.0000615840312613027
379,0.00510978698730469,0.0000910222060038126
380,0.00502538681030273,0.0000702182180917922
381,0.00492572784423828,0.0000681193215500968
382,0.00497245788574219,0.0000629280536129899
383,0.00483083724975586,0.0000794874813616366
384,0.00473785400390625,0.0000779187517975306
385,0.00469541549682617,0.0000803933873180741
386,0.00467491149902344,0.0000824266510051162
387,0.00467252731323242,0.0000622578432430869
388,0.00455474853515625,0.0000614842640674765
389,0.00426578521728516,0.0000829326612890382
390,0.00452518463134766,0.0000853831491322284
391,0.00459480285644531,0.0000821959937717173
392,0.00445556640625,0.0000856556697434689
393,0.00411701202392578,0.0000729654343542425
394,0.00406122207641602,0.0000694907340518386
395,0.00400876998901367,0.0000805741928593182
396,0.00397634506225586,0.000061412109185216
397,0.00416374206542969,0.0000914433939008188
398,0.00392770767211914,0.0000811436189326377
399,0.00360822677612305,0.0000530340679679843
400,0.00374412536621094,0.0000705348381466447
401,0.00365304946899414,0.0000892870416599778
402,0.00362825393676758,0.0000898758988483356
403,0.00374841690063477,0.0000759474515612204
404,0.00368022918701172,0.0000802872573875558
405,0.00365591049194336,0.0000674585557236504
406,0.00321722030639648,0.0000852218865140154
407,0.00341939926147461,0.0000976690082858701
408,0.00343179702758789,0.0000845818262048406
409,0.00335407257080078,0.0000737264883549048
410,0.00321865081787109,0.0000659967433044279
411,0.00319576263427734,0.0000689668755026424
412,0.0032954216003418,0.0000722309930481397
413,0.00313758850097656,0.0000811155929521338
414,0.00303268432617187,0.0000751423348205377
415,0.00302696228027344,0.0000688695496554597
416,0.00290870666503906,0.0000684705616594753
417,0.0029759407043457,0.0000972420506485395
418,0.00300693511962891,0.0000850389307756865
419,0.00292253494262695,0.000100521073097621
420,0.00300931930541992,0.0000776556798959703
421,0.00304031372070312,0.000070649182042893
422,0.00259828567504883,0.0000769320269574859
423,0.00262355804443359,0.0000629948629454079
424,0.00248527526855469,0.0000601268778463292
425,0.00252437591552734,0.000065073860585144
426,0.002593994140625,0.000073945129299088
427,0.0027775764465332,0.0000652152175428838
428,0.0023655891418457,0.0000704929193381281
429,0.00268459320068359,0.0000513989760109568
430,0.00236749649047852,0.0000612359915034433
431,0.00202655792236328,0.0000467750274393559
432,0.00213193893432617,0.0000679221015188958
433,0.00244379043579102,0.0000777361574317562
434,0.002227783203125,0.0000547034271550547
435,0.00202274322509766,0.0000454461085340494
436,0.00220298767089844,0.0000517461697989061
437,0.00215244293212891,0.0000652831691365236
438,0.00211143493652344,0.0000592603275153008
439,0.00200510025024414,0.0000611226378783487
440,0.00205373764038086,0.0000606399271611178
441,0.00241947174072266,0.0000654344991749116
442,0.00163698196411133,0.0000684938029709273
443,0.00197982788085937,0.0000594499487896297
444,0.00181722640991211,0.0000424686335668406
445,0.00179862976074219,0.0000580949322354508
446,0.00186872482299805,0.000058297121085436
447,0.00167608261108398,0.0000535343954119613
448,0.00169610977172852,0.0000531892560269686
449,0.00173521041870117,0.0000517055091442055
450,0.00150918960571289,0.0000576559028632807
451,0.001617431640625,0.0000497021256774094
452,0.00155973434448242,0.0000755030647769527
453,0.00150775909423828,0.0000829052400935759
454,0.00153017044067383,0.0000666157040315987
455,0.00154638290405273,0.0000578871276005696
456,0.00152349472045898,0.0000442470454652506
457,0.00175285339355469,0.0000655785460141752
458,0.0013127326965332,0.0000486408961659276
459,0.00137424468994141,0.0000353921118049879
460,0.00130081176757812,0.0000417654641370309
461,0.00127172470092773,0.0000526197960154727
462,0.00130367279052734,0.0000442354818088879
463,0.00148200988769531,0.0000648936656607107
464,0.00135374069213867,0.0000660294648367225
465,0.00123167037963867,0.0000545962928981726
466,0.00105953216552734,0.000069333500172866
467,0.00121307373046875,0.000060667105455919
468,0.00111150741577148,0.0000656166740866454
469,0.00110435485839844,0.0000740019930343112
470,0.00105381011962891,0.0000684622592790129
471,0.00112485885620117,0.0000717112990922601
472,0.00124120712280273,0.0000749635937544318
473,0.00108051300048828,0.0000579371864226115
474,0.00107192993164062,0.0000504332788974276
475,0.00115680694580078,0.0000723646537968163
476,0.000927925109863281,0.0000827254065175288
477,0.000986576080322266,0.0000717620120614923
478,0.00101566314697266,0.0000790112120712585
479,0.00104141235351562,0.0000722152519899084
480,0.00104904174804687,0.0000845320796985053
481,0.000893115997314453,0.0000572522393028398
482,0.000852584838867188,0.0000826319034850357
483,0.000932693481445313,0.0000866427681254111
484,0.000576019287109375,0.0000803806591251582
485,0.00424051284790039,0.0000610630895352795
486,-0.000947952270507813,0.0000558876746659197
487,0.000382900238037109,0.0000912940822126337
488,0.000399112701416016,0.000107115500326593
489,0.000767230987548828,0.0000949875896574828
490,0.000645160675048828,0.0000656859411534217
491,0.0007171630859375,0.0000807010792103829
492,0.000751018524169922,0.0000774915399798956
493,0.000787258148193359,0.0000758425951650053
494,0.000664234161376953,0.0000741769207506673
495,0.000852584838867188,0.0000725090442446586
496,0.000678062438964844,0.0000754533594972622
497,0.000516891479492188,0.0000575720396874535
498,0.000841617584228516,0.0000626474022751593
499,0.000682830810546875,0.0000503678645939836
500,0.000553131103515625,0.0000729685504711048
501,0.000748157501220703,0.0000781125635254607
502,0.000612258911132813,0.0000728313152044858
503,0.000581264495849609,0.0000760058088042368
504,0.000498294830322266,0.0000771386354970671
505,0.000700950622558594,0.0000569745581594566
506,0.000601291656494141,0.0000637518976074263
507,0.000368595123291016,0.0000627018199264497
508,0.000548839569091797,0.0000637928996290572
509,0.000539779663085938,0.0000596685067429029
510,0.000427722930908203,0.0000708323903474276
511,0.000631809234619141,0.0000799438507288607
512,0.000474929809570313,0.0000776073533166528
513,0.000449657440185547,0.0000780921849423035
514,0.000448226928710938,0.0000785696842827038
515,0.000396251678466797,0.0000630706148049894
516,0.000407695770263672,0.0000832296004799585
517,0.000438213348388672,0.0000656426578021083
518,0.000380516052246094,0.0000755105930256804
519,0.000332832336425781,0.0000828448815151181
520,0.000361919403076172,0.0000695201758140854
521,0.000341415405273437,0.0000611746951289515
522,0.0003204345703125,0.0000714556033894699
523,0.000326156616210937,0.0000721632821362523
524,0.000388145446777344,0.000077616142205526
525,0.000309467315673828,0.0000735582174506873
526,0.000395298004150391,0.0000541267938094069
527,0.000299930572509766,0.0000625220619319297
528,0.000387191772460937,0.0000543322411490588
529,0.000284671783447266,0.000072150677746455
530,0.000299930572509766,0.000077143056767124
531,0.000302791595458984,0.0000675444505327303
532,0.000262260437011719,0.0000510148908567218
533,0.000316143035888672,0.0000492356013544876
534,0.000281810760498047,0.0000751589754634246
535,0.000203132629394531,0.000081196841645177
536,0.0000996589660644531,0.0000883114775536162
537,0.0003662109375,0.0000648375808098198
538,0.000147819519042969,0.0000570054784159792
539,0.000273227691650391,0.0000665149379972229
540,0.000110149383544922,0.0000651541750045624
541,0.000123023986816406,0.0000598254880895419
542,0.000149726867675781,0.0000535948844748671
543,0.0000882148742675781,0.0000523370869275757
544,0.000116348266601562,0.0000451612872793258
545,0.000112533569335937,0.0000517637428926925
546,0.000216484069824219,0.0000592037067572221
547,0.000308513641357422,0.0000658656946175843
548,0.0000424385070800781,0.0000686844161225542
549,0.0000452995300292969,0.0000546524865624613
550,0.000057220458984375,0.0000534855297962825
551,0.0000858306884765625,0.0000463624529204678
552,0.000168323516845703,0.000056465452835364
553,0.0000815391540527344,0.0000444610698735811
554,0.0000777244567871094,0.0000572224457713753
555,0.000194549560546875,0.0000680725752820699
556,0.0000672340393066406,0.0000444124603514604
557,0.0000262260437011719,0.0000525884589469594
558,-0.00000619888305664063,0.0000455036083780593
559,0.000157833099365234,0.0000578792713079809
560,0.000121593475341797,0.0000587216780664035
561,0.000019073486328125,0.0000481511097327428
562,0.0000386238098144531,0.0000637073002619142
563,-0.0000185966491699219,0.0000504017101782222
564,0.0000481605529785156,0.0000397730499644851
565,0.0000243186950683594,0.0000436755246119723
566,0.0000925064086914063,0.0000619851624797397
567,0.0000758171081542969,0.0000719976739398906
568,-0.000003814697265625,0.0000585850290672932
569,0.000136852264404297,0.0000529611334873765
570,0.000154018402099609,0.0000580753597895629
571,0.00012969970703125,0.0000571369515463848
572,-0.000255584716796875,0.000069822052212595
573,0.000257968902587891,0.0000648165364792396
574,0.0000624656677246094,0.000043689838696726
575,-0.000232219696044922,0.0000529729385203676
576,0.000283241271972656,0.0000372230887317562
577,0.000173568725585937,0.000034091355825606
578,-0.000224113464355469,0.0000414004783657139
579,-0.0000362396240234375,0.0000383364916841146
580,0.000252723693847656,0.0000477087432031538
581,0.000417232513427734,0.0000430324070466497
582,-0.000413417816162109,0.0000513270405393006
583,-0.000393390655517578,0.0000602996362414438
584,0.000306129455566406,0.0000591595241635694
585,0.000072479248046875,0.000049225209590194
586,-0.000309944152832031,0.0000461252152420162
587,0.000260353088378906,0.0000583633877684894
588,-0.000333786010742187,0.0000589313627767077
589,-0.000181674957275391,0.0000518186203998799
590,-0.00000524520874023438,0.0000386407308835747
591,-0.000241756439208984,0.0000369133254193175
592,0.000382423400878906,0.0000355443642171346
593,-0.000110149383544922,0.000048337272252938
594,-0.000030517578125,0.0000439712639019113
595,-0.000105381011962891,0.0000448885899954312
596,-0.000352382659912109,0.0000357937678612318
597,0.0000586509704589844,0.0000440151951218447
598,-0.0000586509704589844,0.0000483102172587441
599,0.000030517578125,0.0000488473064774433
600,-0.0000872611999511719,0.0000495532239914739
601,-0.000267505645751953,0.0000443189293114845
602,-0.000128746032714844,0.0000427514496436268
603,-0.000171661376953125,0.0000467580108240759
604,-0.00038909912109375,0.0000474530841437314
605,0.0000171661376953125,0.0000466777060804703
606,-0.000330448150634766,0.000034898812193421
607,-0.000212192535400391,0.0000402983825163545
608,-0.000408172607421875,0.0000585442634562199
609,-0.000306606292724609,0.000056693511763389
610,-0.000158309936523437,0.000041495108154007
611,-0.000461101531982422,0.0000413936127285519
612,-0.000340938568115234,0.0000507097878365236
613,-0.000276565551757812,0.0000516395048930393
614,-0.000439643859863281,0.0000476980187899349
615,-0.000249862670898437,0.0000383557625857781
616,-0.000555992126464844,0.00004967924677467
617,-0.000307083129882812,0.0000507590859185327
618,-0.000434398651123047,0.000049808374524382
619,-0.00037384033203125,0.0000640294833800564
620,-0.000323772430419922,0.0000640046210086484
621,-0.000442028045654297,0.0000571777263657844
622,-0.000290870666503906,0.0000520855930997327
623,-0.000519752502441406,0.0000480624890706413
624,-0.000405311584472656,0.0000458780787912702
625,-0.000563144683837891,0.0000482466372128679
626,-0.000582218170166016,0.0000492090402616269
627,-0.000388145446777344,0.0000587119971262869
628,-0.000523567199707031,0.0000432675531635642
629,-0.000393390655517578,0.0000510572148570274
630,-0.000568866729736328,0.0000547979054776827
631,-0.000544548034667969,0.0000580831895593635
632,-0.000516414642333984,0.000046585062469293
633,-0.000504016876220703,0.0000403258791196174
634,-0.0004730224609375,0.0000408823561547563
635,-0.000502586364746094,0.0000557838338778904
636,-0.000481605529785156,0.0000483219821609614
637,-0.000555515289306641,0.0000441055039678108
638,-0.000544071197509766,0.0000514000819241821
639,-0.000661849975585938,0.0000583010212106175
640,-0.000616073608398438,0.0000479737047020177
641,-0.000459194183349609,0.0000416250435470798
642,-0.0005035400390625,0.0000536711942683439
643,-0.000578880310058594,0.000048848470159658
644,-0.000493049621582031,0.0000403794084479134
645,-0.0005340576171875,0.0000413331459468256
646,-0.000545024871826172,0.0000391355219434418
647,-0.000597000122070313,0.000041057174602221
648,-0.000514984130859375,0.0000542610516237422
649,-0.000650405883789063,0.0000626564751658027
650,-0.000689983367919922,0.0000432530993287986
651,-0.000572681427001953,0.0000438793833554357
652,-0.000651836395263672,0.0000579695543903285
653,-0.000548839569091797,0.0000557338807824084
654,-0.000813007354736328,0.0000508251151175338
655,0.00197792053222656,0.0000484711479991439
656,-0.0000348091125488281,0.0000325124624895683
657,-0.0040593147277832,0.0000290919518667719
658,-0.000580787658691406,0.000049398120256309
659,-0.00077056884765625,0.0000478503177806934
660,-0.000639915466308594,0.0000504727120300264
661,-0.000619411468505859,0.0000486315461930091
662,-0.000581264495849609,0.0000529461050931946
663,-0.000669479370117188,0.000076029737279523
664,-0.000744819641113281,0.0000510572148570274
665,-0.000691890716552734,0.0000477301848006423
666,-0.000719547271728516,0.0000564342367001925
667,-0.000711441040039063,0.0000548445653865405
668,-0.000698566436767578,0.0000425935975982488
669,-0.000755786895751953,0.0000434419325787749
670,-0.000744342803955078,0.0000590989596226828
671,-0.000643253326416016,0.0000576972961425781
672,-0.000767230987548828,0.0000505930741436235
673,-0.000794410705566406,0.000048679445821305
674,-0.000678062438964844,0.0000405648035762861
675,-0.000779628753662109,0.0000334415523363904
676,-0.000733852386474609,0.0000319632095882955
677,-0.000701427459716797,0.0000489623768523927
678,-0.000696659088134766,0.0000477039770949298
679,-0.000680446624755859,0.0000481298556554624
680,-0.000748157501220703,0.0000451877117402281
681,-0.000786781311035156,0.0000449645051350643
682,-0.000797748565673828,0.0000539848319900472
683,-0.000711441040039063,0.0000456358321960089
684,-0.0007476806640625,0.0000357929738116979
685,-0.0007171630859375,0.0000503023652244108
686,-0.000772953033447266,0.0000411898716038122
687,-0.000751972198486328,0.0000431623239613453
688,-0.000825405120849609,0.0000408837465455658
689,-0.000725269317626953,0.0000442534684131375
690,-0.000808238983154297,0.0000396886379213479
691,-0.000746250152587891,0.0000501325734579003
692,-0.000763893127441406,0.0000391318905841681
693,-0.000749588012695313,0.0000492967528660587
694,-0.000802516937255859,0.0000445313317831181
695,-0.000773429870605469,0.0000447960530920331
696,-0.000746250152587891,0.0000516956138789552
697,-0.000678539276123047,0.0000427786982831976
698,-0.000775814056396484,0.0000498163625792285
699,-0.000752449035644531,0.0000592286649484513
700,-0.000779151916503906,0.0000421758355745475
701,-0.000770092010498047,0.0000447744759476086
702,-0.000759124755859375,0.0000388929327681131
703,-0.000800132751464844,0.0000382288411923691
704,-0.000773906707763672,0.0000361736852169612
705,-0.00080108642578125,0.0000379774678823547
706,-0.000715255737304688,0.0000427268444907146
707,-0.000801563262939453,0.0000427108768123654
708,-0.000786781311035156,0.0000663540793868979
709,-0.000768661499023438,0.000055992338081643
710,-0.000757694244384766,0.0000460450413906907
711,-0.000807285308837891,0.0000537368186454041
712,-0.000809192657470703,0.0000521205044810391
713,-0.000727653503417969,0.0000380088869916949
714,-0.000719547271728516,0.0000396757457209358
715,-0.000716209411621094,0.0000366955548996562
716,-0.000882625579833984,0.000045147439722656
717,-0.000830173492431641,0.0000585578551465077
718,-0.000848770141601563,0.0000479808134973004
719,-0.000798702239990234,0.0000382689671082178
720,-0.00087738037109375,0.0000395710204487915
721,-0.000784873962402344,0.0000415033266346093
722,-0.000854015350341797,0.0000498859186316758
723,-0.000819683074951172,0.0000482996263965629
724,-0.000838279724121094,0.0000526057506725223
725,-0.000771999359130859,0.000048993712776786
726,-0.000813484191894531,0.0000457564946590239
727,-0.000883102416992188,0.000051404505339158
728,-0.000833988189697266,0.0000453672404947903
729,-0.000783920288085938,0.0000458260108060225
730,-0.000863552093505859,0.0000476443605139948
731,-0.000837802886962891,0.00004455812983026
732,-0.000876426696777344,0.0000634730978854714
733,-0.000850677490234375,0.0000487704420608595
734,-0.000872611999511719,0.0000390621030217354
735,-0.000922679901123047,0.0000430291045588244
736,-0.000930309295654297,0.0000436572998982174
737,-0.000933170318603516,0.0000558317060771833
738,-0.00109100341796875,0.0000720134625574221
739,-0.000864028930664063,0.0000597636961766925
740,-0.00095367431640625,0.0000573256638093362
741,-0.00091552734375,0.0000583594918112227
742,-0.000921726226806641,0.0000588860105402549
743,-0.000863075256347656,0.0000556460995849993
744,-0.000951290130615234,0.0000567396146497376
745,-0.000950336456298828,0.0000541162908901638
746,-0.0009765625,0.0000436507892278511
747,-0.000975131988525391,0.0000399619695394952
748,-0.000958919525146484,0.000052932146335183
749,-0.000875949859619141,0.0000479239136095132
750,-0.000978946685791016,0.0000547480910765883
751,-0.000952720642089844,0.0000515293099296513
752,-0.000962734222412109,0.000045131068950563
753,-0.000907421112060547,0.000048730797924199
754,-0.000987052917480469,0.0000623089520710563
755,-0.000981330871582031,0.0000620713052092959
756,-0.000970840454101563,0.0000636501700629897
757,-0.000961780548095703,0.0000764829559322078
758,-0.000937461853027344,0.0000566905037510901
759,-0.000941753387451172,0.0000803325566406909
760,-0.000881671905517578,0.0000621811012359235
761,-0.000950813293457031,0.0000440022787277755
762,-0.00101709365844727,0.0000486338838547593
763,-0.000948429107666016,0.0000512283804347335
764,-0.000912189483642578,0.0000498106569564842
765,-0.000899791717529297,0.000054074258813228
766,-0.00106000900268555,0.0000493647380886685
767,-0.00103235244750977,0.0000450415543597492
768,-0.000860691070556641,0.0000421333593607611
769,-0.0009307861328125,0.0000425448585235009
770,-0.000925064086914063,0.000062235926611367
771,-0.000843048095703125,0.0000588203326442646
772,-0.00100564956665039,0.0000504805949601431
773,-0.000992298126220703,0.0000450390302456302
774,-0.00100231170654297,0.0000411553562953293
775,-0.000940322875976563,0.0000536902547700167
776,-0.000936985015869141,0.0000414724989347197
777,-0.000968456268310547,0.0000416591697137537
778,-0.000915050506591797,0.0000536510675035791
779,-0.000919342041015625,0.0000484089535722026
780,-0.000940322875976563,0.0000482807924608121
781,-0.000848293304443359,0.0000581897652057526
782,-0.00100088119506836,0.000062815943546538
783,-0.00095367431640625,0.0000563717525716082
784,-0.000959873199462891,0.0000471984489698027
785,-0.000893592834472656,0.0000408879174343133
786,-0.000988960266113281,0.0000543636186563324
787,-0.000994682312011719,0.000049698694513436
788,-0.000957965850830078,0.0000531411427145196
789,-0.000941753387451172,0.0000534398106617809
790,-0.000949859619140625,0.0000606361774747946
791,-0.00100040435791016,0.0000519358634450517
792,-0.000980377197265625,0.0000389856298333153
793,-0.000981330871582031,0.0000497101308056723
794,-0.00095367431640625,0.0000598948091599397
795,-0.00106000900268555,0.0000648358273764936
796,-0.00107240676879883,0.0000588734601366068
797,-0.000958919525146484,0.0000628087037673926
798,-0.00100326538085937,0.0000603985368101845
799,-0.000959873199462891,0.0000661223744665746
800,-0.00102329254150391,0.0000539131837311483
801,-0.00106143951416016,0.0000472020618794161
802,-0.0010218620300293,0.0000436338569384361
803,-0.00107336044311523,0.0000494015722965366
804,-0.0010986328125,0.0000471659203295831
805,-0.00100898742675781,0.0000570084698088612
806,-0.000980377197265625,0.0000505672260860193
807,-0.00107240676879883,0.0000464322860793298
808,-0.00100040435791016,0.0000611746951289515
809,-0.00111818313598633,0.0000745575725009616
810,-0.00104236602783203,0.0000629551470227096
811,-0.00109195709228516,0.000045681895683279
812,-0.00107765197753906,0.0000490087932981887
813,-0.00101184844970703,0.0000508396523945723
814,-0.00107288360595703,0.0000577189664893113
815,-0.00113773345947266,0.0000464212667751886
816,-0.000994205474853516,0.0000573544126417049
817,-0.00113248825073242,0.0000565559827011932
818,-0.00112247467041016,0.0000555203108599357
819,-0.00120878219604492,0.0000642262658099559
820,-0.00104141235351562,0.000060412652245842
821,-0.00110387802124023,0.0000612656888822518
822,-0.00109958648681641,0.0000552061296020748
823,-0.00116109848022461,0.0000593178525191533
824,-0.001129150390625,0.0000559202124313809
825,-0.0010991096496582,0.0000603401579785177
826,-0.00109195709228516,0.0000635464906652744
827,-0.00114631652832031,0.000049519946381789
828,-0.00117635726928711,0.00005425581341318
829,-0.00114583969116211,0.0000591181931831304
830,-0.00117921829223633,0.0000580743809941136
831,-0.00114727020263672,0.0000562465760746122
832,-0.00108766555786133,0.0000493739492168149
833,-0.00114154815673828,0.0000500951420385944
834,-0.00111532211303711,0.0000477801777758075
835,-0.00117921829223633,0.0000450440783324255
836,-0.00111913681030273,0.0000591681711801154
837,-0.00115823745727539,0.0000680892740619806
838,-0.00115537643432617,0.0000492921403043769
839,-0.00116968154907227,0.0000372719239312822
840,-0.00114059448242187,0.0000437405508883585
841,-0.00115489959716797,0.0000621719589729562
842,-0.00114059448242187,0.0000641022391388171
843,-0.00116395950317383,0.0000629605643055819
844,-0.00115203857421875,0.0000474291203586744
845,-0.00113677978515625,0.0000636430251822282
846,-0.00121402740478516,0.0000696133259133738
847,-0.00108051300048828,0.0000508385342900759
848,-0.00106191635131836,0.0000548632182387937
849,-0.00111961364746094,0.0000645458585437233
850,-0.00114583969116211,0.0000694956418783919
851,-0.00114822387695312,0.0000640614351078314
852,-0.00106191635131836,0.0000569625845218828
853,-0.00111818313598633,0.0000589757163013314
854,-0.00104284286499023,0.00007500149818814
855,-0.00116157531738281,0.0000614472721478367
856,-0.00116777420043945,0.0000604841198253218
857,-0.00105476379394531,0.0000651611541888794
858,-0.00110197067260742,0.0000470657841006148
859,-0.00113248825073242,0.0000471044160542595
860,-0.00110244750976562,0.000050552610468147
861,-0.00107955932617187,0.0000654900728346342
862,-0.00104045867919922,0.0000637518976074263
863,-0.00101757049560547,0.0000504163695418452
864,-0.00104236602783203,0.0000495990875063045
865,-0.00100040435791016,0.0000582034396786712
866,-0.00108814239501953,0.0000611430942268841
867,-0.000941276550292969,0.0000549760364234196
868,-0.000999927520751953,0.000060866353437957
869,-0.00107908248901367,0.0000627326356418369
870,-0.000995635986328125,0.0000640206050700843
871,-0.00105571746826172,0.0000615784928799559
872,-0.000990390777587891,0.0000501382424472615
873,-0.0010218620300293,0.0000615267772799321
874,-0.00100612640380859,0.0000648638766217497
875,-0.00101041793823242,0.0000557817958516991
876,-0.000974655151367188,0.0000448847908680074
877,-0.00103664398193359,0.0000727704122640024
878,-0.00100612640380859,0.0000613750737764773
879,-0.00101137161254883,0.0000604135931576227
880,-0.000987529754638672,0.0000567366090816816
881,-0.000949382781982422,0.0000730806421871488
882,-0.000888824462890625,0.0000683309477852223
883,-0.00103330612182617,0.0000625093322032154
884,-0.000931262969970703,0.0000752300349292587
885,-0.00101852416992187,0.0000657153575482421
886,-0.000975608825683594,0.000041989431084568
887,-0.000986099243164063,0.0000471056227923005
888,-0.00103950500488281,0.000058760385877249
889,-0.000981330871582031,0.0000563425023379392
890,-0.00104761123657227,0.0000566283023903562
891,-0.000977993011474609,0.0000575088149430984
892,-0.00104284286499023,0.0000603580542660976
893,-0.00102138519287109,0.0000501416435332303
894,-0.00101947784423828,0.0000741569936976278
895,-0.000957965850830078,0.0000618088383226637
896,-0.000957965850830078,0.0000533674306914051
897,-0.0010833740234375,0.0000516714174751589
898,-0.00102710723876953,0.0000611207778708051
899,-0.000909805297851563,0.0000604625003930228
900,-0.000998020172119141,0.0000648323203675728
901,-0.00107574462890625,0.0000807053053197051
902,-0.00101280212402344,0.0000831530725242831
903,-0.00100040435791016,0.0000623326669249275
904,-0.000996112823486328,0.0000722624648778968
905,-0.00110721588134766,0.0000631066551592477
906,-0.00101804733276367,0.0000514277220257292
907,-0.00104331970214844,0.0000622724500456207
908,-0.00107765197753906,0.000065611476108732
909,-0.00106430053710937,0.0000616983798350539
910,-0.00101327896118164,0.0000862442754319059
911,-0.00102329254150391,0.0000571309820586658
912,-0.00106573104858398,0.0000638712649381744
913,-0.00110149383544922,0.0000665525296110836
914,-0.00114154815673828,0.0000667503898414502
915,-0.00101232528686523,0.0000702829502724823
916,-0.0010528564453125,0.0000584198499519034
917,-0.00110626220703125,0.0000595435783370996
918,-0.00113201141357422,0.0000699619404481212
919,-0.00118398666381836,0.0000513735334360731
920,-0.00115680694580078,0.000067129120905978
921,-0.00118541717529297,0.0000668559025955305
922,-0.00115489959716797,0.000087738037109375
923,-0.0011754035949707,0.000088522349440554
924,-0.00124359130859375,0.0000649164362905487
925,-0.00116062164306641,0.0000787012470850944
926,-0.00125885009765625,0.0000819216784763498
927,-0.00137567520141602,0.000077605888405071
928,-0.00129890441894531,0.0000800021349093356
929,-0.0014801025390625,0.000102864286127043
930,-0.00138711929321289,0.000066993499532223
931,-0.00142288208007812,0.000100029025595348
932,-0.00136756896972656,0.0000945701652207719
933,-0.0014042854309082,0.0000771872555389749
934,-0.00158166885375977,0.0000813674792626393
935,-0.00147485733032227,0.0000844122991100231
936,-0.00154876708984375,0.000083341532487949
937,-0.00161504745483398,0.0000753568679298358
938,-0.00167274475097656,0.0000876498816078831
939,-0.00172758102416992,0.0000968319969221332
940,-0.00170373916625977,0.0000786463355349901
941,-0.00162267684936523,0.0000732577699734752
942,-0.00169563293457031,0.000092636587040858
943,-0.00179386138916016,0.0000707858296959392
944,-0.00193023681640625,0.0000991339750035646
945,-0.00180864334106445,0.0000956816265959474
946,-0.00178956985473633,0.000100920644160668
947,-0.00202703475952148,0.000125076849837195
948,-0.00200748443603516,0.00014198862297452
949,-0.00205135345458984,0.000145278126534391
950,-0.00215244293212891,0.0000977481283169939
951,-0.00221586227416992,0.0000996760759769739
952,-0.00214910507202148,0.0000944546890156415
953,-0.00243139266967773,0.000128353367809009
954,-0.00230312347412109,0.000125113201990093
955,-0.0024867057800293,0.0000907419984489057
956,-0.00240278244018555,0.000102241270311099
957,-0.00260114669799805,0.000112167263303407
958,-0.00257396697998047,0.000110876687738517
959,-0.00273990631103516,0.000123308282058586
960,-0.00266265869140625,0.000157263757507289
961,-0.00273752212524414,0.000112185505673121
962,-0.00283002853393555,0.000119234082504809
963,-0.00297021865844727,0.000125207668193525
964,-0.00286865234375,0.000123544081546439
965,-0.00275468826293945,0.000110858229995372
966,-0.00300741195678711,0.000108020193836133
967,-0.00292778015136719,0.000127182401577543
968,-0.00260591506958008,0.000110463730094255
969,-0.0026850700378418,0.000146741938651416
970,-0.00293731689453125,0.000148834313773341
971,-0.00286054611206055,0.000166210413531622
972,-0.00248479843139648,0.000153491207418295
973,-0.00228691101074219,0.00016717070228176
974,-0.00233364105224609,0.00019357944287152
975,-0.00273036956787109,0.000201588794987762
976,-0.00236272811889648,0.0000828874114518767
977,-0.00248336791992187,0.000146655142110757
978,-0.00234031677246094,0.000190658554071042
979,-0.00220918655395508,0.000177491063098993
980,-0.00203180313110352,0.000188185824911533
981,-0.00236797332763672,0.000173243542905664
982,-0.00244140625,0.000217379177303886
983,-0.00220060348510742,0.000175885055607645
984,-0.00187492370605469,0.000164419647595713
985,-0.00213623046875,0.000224448015208873
986,-0.00195980072021484,0.000215699121379518
987,-0.00200986862182617,0.000236930014947091
988,-0.00216293334960937,0.000184550149260283
989,-0.00162124633789062,0.000194240773804956
990,-0.00179004669189453,0.000218018375610995
991,-0.00132989883422852,0.00016248886482608
992,-0.00191497802734375,0.000149087695725129
993,-0.00151491165161133,0.000190223963276812
994,-0.00171566009521484,0.000210250042770439
995,-0.00151443481445312,0.00020399715579959
996,-0.00164270401000977,0.000245233414648235
997,-0.00183820724487305,0.000198235837007855
998,-0.00205469131469727,0.000264572013310652
999,-0.00170660018920898,0.000199283706427838
1000,-0.00143575668334961,0.000165604659467241
1001,-0.00145292282104492,0.00026610760507742
1002,-0.00146341323852539,0.000354746335985189
1003,-0.00171089172363281,0.000224233148960662
1004,-0.00155305862426758,0.000275306466445939
1005,-0.00119781494140625,0.000260895732967571
1006,-0.0014796257019043,0.000331324630089573
1007,-0.00127744674682617,0.000278590451865269
1008,-0.0016322135925293,0.000244490551513395
1009,-0.00135517120361328,0.00029475171228028
1010,-0.00149917602539062,0.000265176342010889
1011,-0.00163125991821289,0.000266073425178098
1012,-0.00110197067260742,0.000242300850161212
1013,-0.00173759460449219,0.000160421513773455
1014,-0.00163412094116211,0.0001360215082925
1015,-0.00125885009765625,0.000199274578581438
1016,-0.0011906623840332,0.000222882481614947
1017,-0.00130271911621094,0.000305866413656633
1018,-0.00165033340454102,0.00030163257779384
1019,-0.00132942199707031,0.000304077077993464
1020,-0.00163555145263672,0.000272777529392446
1021,-0.00182533264160156,0.000252260827901694
1022,-0.00154590606689453,0.000225046932800532
1023,-0.00127935409545898,0.000204482540622197
1024,-0.00175905227661133,0.000311295424772838
1025,-0.00134897232055664,0.000321109379074172
1026,-0.00222492218017578,0.000304417861094002
1027,-0.00101280212402344,0.000374588898113021
1028,-0.00162267684936523,0.000290925380376118
1029,-0.00194454193115234,0.000292471871623832
1030,-0.00216960906982422,0.000375365047918239
1031,-0.00202512741088867,0.000375578207922363
1032,-0.00163745880126953,0.00032897755475438
1033,-0.00156831741333008,0.000259259129906406
1034,-0.00166988372802734,0.000305128093808307
1035,-0.00176620483398437,0.000321143365496227
1036,-0.00175046920776367,0.000405211716858332
1037,-0.00204038619995117,0.000501803089978191
1038,-0.0023341178894043,0.000316734752725938
1039,-0.00219154357910156,0.000309572730897308
1040,-0.00237607955932617,0.000271795507057796
1041,-0.00215005874633789,0.000378097891032833
1042,-0.00151586532592773,0.00052201452524465
1043,-0.0022578239440918,0.000563620714164453
1044,-0.0020909309387207,0.000622181684803575
1045,-0.00214052200317383,0.000608070402204854
1046,-0.00249528884887695,0.000483985722342117
1047,-0.00153112411499023,0.000528042846453521
1048,-0.00231409072875977,0.000592335401669656
1049,-0.00230503082275391,0.000534983241523993
1050,-0.00254487991333008,0.000406708274320607
1051,-0.00303220748901367,0.000477233721816857
1052,-0.00171613693237305,0.000735257540412765
1053,-0.00262355804443359,0.000667310390975035
1054,-0.00346279144287109,0.000649574733161416
1055,-0.00299501419067383,0.000655517737958665
1056,-0.00185537338256836,0.000744305994026601
1057,-0.00269985198974609,0.000712419609033173
1058,-0.00285720825195312,0.000698912505529711
1059,-0.00357198715209961,0.000781743072838189
1060,-0.00386524200439453,0.000729754677749525
1061,-0.00394058227539062,0.00063683740265046
1062,-0.00309228897094727,0.000634364771819225
1063,-0.00435161590576172,0.000747719588531593
1064,-0.00358486175537109,0.00112801572133034
1065,-0.00345468521118164,0.000995628678452137
1066,-0.00363922119140625,0.00104475358695213
1067,-0.00248479843139648,0.00109810286562024
1068,-0.00186920166015625,0.000793218576840032
1069,-0.00308942794799805,0.00090842672384771
1070,-0.00319290161132812,0.00112279184182282
1071,-0.00374317169189453,0.000960228333626841
1072,-0.00132894515991211,0.000942098940456124
1073,-0.00363874435424805,0.00093055159318503
1074,-0.00232648849487305,0.000928265645347556
1075,-0.00343465805053711,0.000970073839451424
1076,-0.00411272048950195,0.00066460084481335
1077,-0.00525045394897461,0.000793640408966574
1078,-0.00430488586425781,0.000890795115277831
1079,-0.00336790084838867,0.0010233063176944
1080,-0.00411510467529297,0.00146038648852605
1081,-0.0039830207824707,0.00130529553841194
1082,-0.00178194046020508,0.00125465851200389
1083,-0.00416421890258789,0.00112107975382824
1084,-0.00432729721069336,0.00131933388191023
1085,-0.00400733947753906,0.00154532439851182
1086,-0.00397539138793945,0.00111584948563862
1087,-0.00479507446289063,0.00128073880418355
1088,-0.00447893142700195,0.0011533514966633
1089,-0.00291252136230469,0.00122586589062711
1090,-0.00614070892333984,0.00147911904290817
1091,-0.00560951232910156,0.00193299409449623
1092,-0.00454616546630859,0.00177543731770736
1093,-0.00494146347045898,0.00196026450839254
1094,-0.0020294189453125,0.00278179065935595
1095,-0.00635433197021484,0.00236343816756436
1096,-0.0071568489074707,0.00238481742121553
1097,-0.00108861923217773,0.0020821958158345
1098,-0.00589799880981445,0.00178341890974434
1099,-0.00910854339599609,0.00232995263630693
1100,-0.00795412063598633,0.00248498175667105
