Wavelength (nm),Absorbance (AU),Std.Dev.
190,0.280730247497559,0.000119580644121968
191,0.282397747039795,0.000072370937632691
192,0.28220272064209,0.0000496426185982515
193,0.281974315643311,0.0000734824471858816
194,0.281240940093994,0.0000681026301378372
195,0.280321598052979,0.000062652846167209
196,0.279202938079834,0.0000688067923251693
197,0.277939319610596,0.0000533439926155893
198,0.276419639587402,0.0000627163233256899
199,0.274457931518555,0.0000475918361478915
200,0.272249698638916,0.0000599261197638426
201,0.269600391387939,0.0000657499482220494
202,0.26659107208252,0.0000573097962112717
203,0.263027667999268,0.0000652448461692431
204,0.258908271789551,0.0000669510615127787
205,0.254134178161621,0.0000536976653601751
206,0.248558521270752,0.0000561717410636855
207,0.242244720458984,0.0000546576867572039
208,0.2350754737854,0.0000669985902881567
209,0.227334022521973,0.0000532789512947752
210,0.218843460083008,0.0000701809700520824
211,0.209496021270752,0.0000627471319183196
212,0.199865341186523,0.0000560684263795421
213,0.189603328704834,0.0000648989211305583
214,0.179172992706299,0.0000450491258535453
215,0.168402671813965,0.000055766508281179
216,0.157617092132568,0.0000530029758309744
217,0.146877288818359,0.0000580792748064064
218,0.136354446411133,0.0000440616627894595
219,0.126008033752441,0.0000574959639215585
220,0.116238117218018,0.0000612174233258421
221,0.106729984283447,0.0000392138772250664
222,0.0980396270751953,0.0000500962767349498
223,0.0897297859191895,0.0000539121293698444
224,0.0821828842163086,0.0000548538926055208
225,0.0752034187316895,0.0000468612308569753
226,0.0688624382019043,0.0000391449619010008
227,0.0632181167602539,0.0000456408142737744
228,0.0580973625183106,0.0000428026096153475
229,0.0536308288574219,0.0000425181284869205
230,0.0496373176574707,0.0000370577948110551
231,0.0461654663085938,0.0000524759238441114
232,0.0430254936218262,0.0000481782540754876
233,0.0403709411621094,0.0000414814070679325
234,0.0380945205688477,0.0000386142424519484
235,0.0360479354858398,0.0000379497675916129
236,0.0343008041381836,0.0000378657945558392
237,0.0327968597412109,0.0000460734265486952
238,0.0314927101135254,0.0000553387960449735
239,0.0304045677185059,0.0000474925979537534
240,0.0294265747070312,0.0000524282401233651
241,0.0285220146179199,0.0000410433273254015
242,0.0278191566467285,0.0000452191492982894
243,0.0271239280700684,0.0000453384132148947
244,0.0265045166015625,0.0000409087654993529
245,0.0260066986083984,0.0000480021335665584
246,0.0255169868469238,0.0000359680326102656
247,0.0251116752624512,0.0000320324921580642
248,0.0247197151184082,0.0000396198310425627
249,0.0244107246398926,0.0000487739385258646
250,0.024141788482666,0.0000484359534150332
251,0.0237889289855957,0.0000486876190969883
252,0.0235028266906738,0.0000427208573107325
253,0.023249626159668,0.0000407012009142301
254,0.0230813026428223,0.0000417790720691452
255,0.0228271484375,0.0000486841164325722
256,0.0225777626037598,0.0000386524976931455
257,0.0224618911743164,0.0000542233252130154
258,0.0222210884094238,0.0000608317891224531
259,0.0220136642456055,0.0000468211842202429
260,0.0218043327331543,0.0000636305197104159
261,0.0217833518981934,0.0000684489733756705
262,0.0215325355529785,0.0000645300045875355
263,0.0213828086853027,0.0000500940073165367
264,0.0211234092712402,0.0000490760191654991
265,0.0209569931030273,0.0000378575371589008
266,0.0207662582397461,0.000055710417964687
267,0.0206122398376465,0.0000800135024821129
268,0.0203738212585449,0.0000830600509288223
269,0.0202178955078125,0.0000705025951214882
270,0.0199685096740723,0.000064865629296855
271,0.0198125839233398,0.0000581604519374546
272,0.0195879936218262,0.0000497764094858689
273,0.0194315910339355,0.0000475272950912503
274,0.0192046165466309,0.0000665439879272121
275,0.0189428329467773,0.0000570632842204383
276,0.0188074111938477,0.0000523207928599978
277,0.0185775756835937,0.0000585539721283578
278,0.0183253288269043,0.000045027669981105
279,0.0180649757385254,0.0000554608968679379
280,0.0178718566894531,0.0000604192383205969
281,0.0176429748535156,0.000049091074402816
282,0.0174050331115723,0.0000597094567966405
283,0.0171756744384766,0.0000482595954973208
284,0.0169200897216797,0.0000483795888264114
285,0.0166964530944824,0.0000398587093837811
286,0.0164570808410645,0.0000449505969573963
287,0.0162372589111328,0.0000525614292373504
288,0.0159893035888672,0.0000481168624309681
289,0.0157008171081543,0.0000419670881761325
290,0.0154933929443359,0.0000460869958790216
291,0.0153012275695801,0.0000412298731629442
292,0.0150299072265625,0.0000450049408492924
293,0.0147867202758789,0.0000436169180758284
294,0.0145220756530762,0.0000459968700021999
295,0.0143232345581055,0.0000469400106719485
296,0.0140295028686523,0.000041975214246143
297,0.0139117240905762,0.0000465423356305598
298,0.0136928558349609,0.0000366304368279901
299,0.0134820938110352,0.0000354049583069736
300,0.0132989883422852,0.000052318619934239
301,0.0130534172058105,0.0000523620613166844
302,0.0129151344299316,0.0000595769818009151
303,0.0127296447753906,0.0000497272803125495
304,0.0125513076782227,0.0000394631365520983
305,0.012385368347168,0.0000380529795424777
306,0.012202262878418,0.0000434196825176965
307,0.0119719505310059,0.0000372551440518534
308,0.0117378234863281,0.0000474207301729272
309,0.011622428894043,0.0000555735245737161
310,0.0115056037902832,0.0000570264148708897
311,0.0112733840942383,0.0000525819730838403
312,0.0111160278320312,0.0000550473339284652
313,0.0109682083129883,0.0000606811584181237
314,0.0108003616333008,0.000052532221529786
315,0.0105633735656738,0.000059125884855448
316,0.010429859161377,0.000051353613063039
317,0.0102825164794922,0.0000434105174131052
318,0.0101346969604492,0.0000386936533474783
319,0.00995826721191406,0.0000503339962513033
320,0.00977563858032227,0.0000382771357488688
321,0.00969886779785156,0.0000282397723947575
322,0.00946998596191406,0.0000468041843862044
323,0.00928401947021484,0.0000487797654106026
324,0.00921487808227539,0.0000475260990599173
325,0.00908184051513672,0.0000591816195835121
326,0.00890302658081055,0.0000538731034951128
327,0.00876235961914063,0.0000601675159331796
328,0.00857639312744141,0.0000570363819101812
329,0.00848913192749023,0.0000357325744167905
330,0.00834321975708008,0.0000302716493679331
331,0.0081782341003418,0.0000394206213144437
332,0.00805854797363281,0.0000586403084965088
333,0.00787067413330078,0.0000636055013906929
334,0.00771236419677734,0.0000485438026146866
335,0.00766801834106445,0.0000542327592760679
336,0.00755119323730469,0.0000446116776321471
337,0.00740575790405273,0.0000369317997877857
338,0.00728368759155273,0.0000507546062533648
339,0.00708723068237305,0.0000469618032550032
340,0.00694036483764648,0.0000521924354542652
341,0.00690984725952148,0.0000577386597467301
342,0.00680398941040039,0.0000385685808420337
343,0.00672149658203125,0.000031441435994692
344,0.00657939910888672,0.0000489205643965576
345,0.00645160675048828,0.0000388307678098411
346,0.00636053085327148,0.0000411981509750725
347,0.00629043579101563,0.0000344603520501625
348,0.00612401962280273,0.0000442033446689435
349,0.00591564178466797,0.0000564352439418053
350,0.00588750839233398,0.0000432018149488626
351,0.00572729110717773,0.0000472333621865837
352,0.00560951232910156,0.0000458284915753195
353,0.00554275512695313,0.0000404251338752189
354,0.00539970397949219,0.0000547761172514892
355,0.00530290603637695,0.0000458483328974204
356,0.00527667999267578,0.0000434301545546333
357,0.00512886047363281,0.0000502707142948437
358,0.0049901008605957,0.0000463379251159152
359,0.00497102737426758,0.0000438534667603242
360,0.0048680305480957,0.0000361438162381768
361,0.00468778610229492,0.000040203056748066
362,0.00457477569580078,0.0000473283399627433
363,0.00448369979858398,0.000052806351470593
364,0.00451421737670898,0.0000608299202215748
365,0.00422096252441406,0.0000548849718876639
366,0.00432825088500977,0.0000623107766110216
367,0.00424289703369141,0.0000606933350200482
368,0.00408172607421875,0.0000598017295252309
369,0.00410270690917969,0.0000437223532794036
370,0.00401687622070313,0.0000459436994154503
371,0.00393867492675781,0.0000560501746081057
372,0.00398397445678711,0.0000688579933923268
373,0.00382471084594727,0.0000953221213468439
374,0.00368595123291016,0.0000519314852900644
375,0.00360918045043945,0.0000256806803964205
376,0.00351285934448242,0.0000463465113240707
377,0.00355625152587891,0.0000423667869606338
378,0.00346803665161133,0.0000646021966558454
379,0.00335168838500977,0.0000887045287028148
380,0.00328731536865234,0.0000605423598398892
381,0.00319099426269531,0.0000483255110731116
382,0.00330543518066406,0.0000524325767990104
383,0.00320625305175781,0.0000610984533636244
384,0.00307083129882812,0.0000590113677713949
385,0.0030217170715332,0.00007003502642722
386,0.00298833847045898,0.0000543907978539743
387,0.00310039520263672,0.0000663609323772995
388,0.00290250778198242,0.0000709670832926618
389,0.00270271301269531,0.000082114349204442
390,0.00266408920288086,0.0000867240822165979
391,0.00285577774047852,0.0000779012413096214
392,0.00281238555908203,0.0000621737875330946
393,0.00259637832641602,0.0000568766996877331
394,0.00256013870239258,0.0000549729344342832
395,0.00256824493408203,0.000049548635305105
396,0.0024871826171875,0.0000700025531902411
397,0.00252008438110352,0.0000893226862073853
398,0.00237131118774414,0.0000621536704127802
399,0.00224113464355469,0.0000679505498669857
400,0.00230073928833008,0.0000770560585581988
401,0.00218343734741211,0.0000720623852883595
402,0.00221633911132812,0.0000845777937943496
403,0.00211334228515625,0.0000652866519271652
404,0.00206899642944336,0.0000768092751998451
405,0.00213289260864258,0.0000883938288735771
406,0.00182962417602539,0.0000901386205701444
407,0.00198268890380859,0.0000817118594782331
408,0.00194454193115234,0.0000675562314927095
409,0.00188875198364258,0.000047539253749591
410,0.00179004669189453,0.0000387707024485656
411,0.0017399787902832,0.0000502050881796452
412,0.00169563293457031,0.0000536160925341337
413,0.00164890289306641,0.0000645828359731179
414,0.00164985656738281,0.0000528870236302339
415,0.00165557861328125,0.0000721475263049393
416,0.00168418884277344,0.0000704073921688152
417,0.00168037414550781,0.0000703169108123254
418,0.00164651870727539,0.0000761925500388102
419,0.00154495239257812,0.0000667912532611585
420,0.00141000747680664,0.0000615877232388404
421,0.00146913528442383,0.0000578655202293625
422,0.00133562088012695,0.0000577012368109666
423,0.00140714645385742,0.0000576095465492234
424,0.00124359130859375,0.0000628177533609512
425,0.00122594833374023,0.0000549801721366899
426,0.00133991241455078,0.0000501881019421947
427,0.00130224227905273,0.0000627453200669147
428,0.00107145309448242,0.0000719771435594248
429,0.00130462646484375,0.0000570841994742388
430,0.00106096267700195,0.0000473379473396426
431,0.000924110412597656,0.0000486724390640436
432,0.00103282928466797,0.0000353615826583038
433,0.0010685920715332,0.0000488624321845695
434,0.000913619995117188,0.0000487995716144588
435,0.000897884368896484,0.0000601703501243144
436,0.00102376937866211,0.0000798356992204908
437,0.00100898742675781,0.0000942522652224713
438,0.000912666320800781,0.0000695447010947131
439,0.000863552093505859,0.0000616209410825733
440,0.000861167907714844,0.0000666447100384426
441,0.000949382781982422,0.0000578733783886558
442,0.000741958618164063,0.0000561848949720128
443,0.000797748565673828,0.0000543458402931619
444,0.00060272216796875,0.0000333487854353305
445,0.000700950622558594,0.000039267474836285
446,0.000726699829101563,0.0000452116062779753
447,0.000674247741699219,0.0000494452772790623
448,0.000714302062988281,0.0000505267417104706
449,0.000640869140625,0.0000526867299862944
450,0.000543594360351563,0.0000581193885238365
451,0.000594615936279297,0.0000625929373137444
452,0.000583648681640625,0.000053401504074408
453,0.000632762908935547,0.0000508027419531282
454,0.000397205352783203,0.0000634551843305509
455,0.000514507293701172,0.0000513370068475218
456,0.000413894653320313,0.0000584071993808343
457,0.000354290008544922,0.0000700041772098493
458,0.00054931640625,0.0000640436861159667
459,0.000400543212890625,0.0000632524085952394
460,0.000298023223876953,0.0000644524402202729
461,0.000292778015136719,0.0000540900246696726
462,0.000275135040283203,0.0000543311949200619
463,0.000342845916748047,0.0000568387092353016
464,0.000291347503662109,0.0000635786851234734
465,0.000220298767089844,0.0000567406164703772
466,0.0000615119934082031,0.0000590315928113326
467,0.00019073486328125,0.0000673742388198092
468,0.000245094299316406,0.0000656859411534217
469,0.0000767707824707031,0.0000959000022123454
470,0.000140190124511719,0.0000721301909153999
471,0.0000543594360351563,0.0000562728458308081
472,0.000145912170410156,0.0000505661019577035
473,0.000145435333251953,0.0000458793177849859
474,0.0000934600830078125,0.0000658328916851102
475,0.000200748443603516,0.0000734762584085778
476,0.000116825103759766,0.000049212505564984
477,-0.00002288818359375,0.0000516229906440183
478,-0.0000143051147460937,0.000058838691201442
479,-0.00002288818359375,0.0000608775592717625
480,-0.000117778778076172,0.0000692071273295727
481,-0.000049591064453125,0.000075507581816259
482,-0.0000820159912109375,0.0000800475955145795
483,-0.0000376701354980469,0.0000682327148688634
484,-0.000129222869873047,0.0000578851636273855
485,0.0014033317565918,0.0000509847971899933
486,-0.000823497772216797,0.0000609559424277533
487,-0.0000452995300292969,0.0000643182450865551
488,-0.000237464904785156,0.0000529267766018357
489,-0.000108718872070312,0.0000597208797072057
490,-0.000107288360595703,0.0000705445081804815
491,-0.000138282775878906,0.0000698578642390253
492,-0.000133037567138672,0.0000818994714609035
493,-0.000194549560546875,0.000059497737376943
494,-0.000177383422851562,0.0000360516958304651
495,-0.000113010406494141,0.0000468151135595901
496,-0.000158309936523437,0.0000634247196757042
497,-0.000238895416259766,0.0000652309049626375
498,-0.000161647796630859,0.0000575947441268846
499,-0.000191211700439453,0.0000726594066182515
500,-0.000318050384521484,0.000072315935554996
501,-0.000220775604248047,0.0000627634362272653
502,-0.000132560729980469,0.0000588628384742164
503,-0.000218868255615234,0.0000609410200755783
504,-0.000263214111328125,0.000060899964753621
505,-0.00026702880859375,0.000058540379536525
506,-0.000396728515625,0.000051369107354094
507,-0.00038909912109375,0.0000559039459158942
508,-0.000205039978027344,0.0000531561159673376
509,-0.000252723693847656,0.0000514288273208071
510,-0.000268936157226562,0.0000684240553537394
511,-0.000235557556152344,0.0000789147489175166
512,-0.000375747680664062,0.0000691759089089422
513,-0.000383853912353516,0.0000497547072284441
514,-0.000398159027099609,0.0000605357871603118
515,-0.000331878662109375,0.0000692777275988159
516,-0.000370502471923828,0.0000689899496162534
517,-0.000408172607421875,0.0000639530896350822
518,-0.000410556793212891,0.0000564120728346643
519,-0.000380039215087891,0.0000473883541127467
520,-0.000401973724365234,0.0000377530380832576
521,-0.000436305999755859,0.0000556757156875202
522,-0.000410556793212891,0.0000739697243868459
523,-0.000440597534179688,0.0000688183571861976
524,-0.000443935394287109,0.0000567796736879457
525,-0.000422477722167969,0.0000352133829534975
526,-0.000545978546142578,0.0000800135024821129
527,-0.000445842742919922,0.0000794288195337395
528,-0.000447750091552734,0.0000621097558968788
529,-0.000496864318847656,0.0000675629625475255
530,-0.000579833984375,0.0000723033577767367
531,-0.000520229339599609,0.0000652553001196137
532,-0.000374794006347656,0.000045281958936723
533,-0.000423431396484375,0.0000536669576819799
534,-0.000545024871826172,0.0000647779374502218
535,-0.000514030456542969,0.0000565378883247215
536,-0.000550270080566406,0.0000423882486872397
537,-0.00049591064453125,0.0000452681482936085
538,-0.000516414642333984,0.0000499940509191817
539,-0.000457286834716797,0.0000758860532505858
540,-0.000482559204101563,0.0000619209357891111
541,-0.000516891479492188,0.0000478396251048631
542,-0.000559329986572266,0.000049322114244699
543,-0.000535488128662109,0.0000499451358321078
544,-0.000523090362548828,0.0000501484450131793
545,-0.000581741333007813,0.000056857707634514
546,-0.000583171844482422,0.0000522849280371885
547,-0.000518321990966797,0.000043674223098909
548,-0.000628948211669922,0.000065939872577227
549,-0.000553131103515625,0.0000670969356511607
550,-0.000687122344970703,0.0000605066709970826
551,-0.000514984130859375,0.000049018071313
552,-0.000545978546142578,0.0000578114664693785
553,-0.000576019287109375,0.0000542495268928631
554,-0.000601291656494141,0.0000673556749362577
555,-0.000547409057617188,0.0000562061370902526
556,-0.000553131103515625,0.0000531101132620805
557,-0.0005645751953125,0.0000647463393107817
558,-0.000629425048828125,0.0000500883333206509
559,-0.000603675842285156,0.0000519916526041139
560,-0.000575065612792969,0.0000635590126701155
561,-0.000627040863037109,0.0000440190693010112
562,-0.000638008117675781,0.0000516527124907384
563,-0.000553131103515625,0.0000495624000896946
564,-0.000620841979980469,0.0000506424858410597
565,-0.000615119934082031,0.0000576647753530658
566,-0.000532627105712891,0.0000618548044753459
567,-0.000499248504638672,0.0000552946092642415
568,-0.000616550445556641,0.0000713616718477228
569,-0.000590324401855469,0.0000584227689254462
570,-0.000588893890380859,0.0000660810974249616
571,-0.000545978546142578,0.0000529986858288766
572,-0.000733852386474609,0.0000482207101971779
573,-0.000478267669677734,0.0000622651470726807
574,-0.000544071197509766,0.0000467482842628756
575,-0.000682830810546875,0.0000595912918392646
576,-0.000508308410644531,0.0000478336836965882
577,-0.000603675842285156,0.0000443561090900711
578,-0.000731468200683594,0.0000375090850358131
579,-0.000560283660888672,0.0000397508912792247
580,-0.000493049621582031,0.0000445798116888303
581,-0.000467300415039063,0.0000415484992193927
582,-0.000783920288085938,0.0000491743737971189
583,-0.000771522521972656,0.0000468272540938985
584,-0.000496387481689453,0.0000386826338050024
585,-0.000645637512207031,0.0000431689083013774
586,-0.000796794891357422,0.0000332155673844272
587,-0.000578880310058594,0.0000427554383341432
588,-0.000720977783203125,0.0000501937646600525
589,-0.000758171081542969,0.0000586073410767217
590,-0.000648975372314453,0.0000640028447554112
591,-0.000751495361328125,0.0000457042881609261
592,-0.000519752502441406,0.0000522686177097516
593,-0.000665664672851563,0.0000533258743194219
594,-0.000653266906738281,0.0000494659661614159
595,-0.000689029693603516,0.0000512383659332075
596,-0.000719070434570313,0.0000372726864735848
597,-0.000655651092529297,0.000050751246245003
598,-0.000709056854248047,0.0000601807410165206
599,-0.000626564025878906,0.0000628213728333613
600,-0.000648975372314453,0.0000528138860859514
601,-0.000669479370117188,0.0000525138231574625
602,-0.000698566436767578,0.000052792355760521
603,-0.000687122344970703,0.0000491269567344873
604,-0.000768661499023438,0.0000452882351095257
605,-0.000629425048828125,0.0000578684671641467
606,-0.000829696655273438,0.000039595433266981
607,-0.000764369964599609,0.0000428125687288996
608,-0.000775337219238281,0.0000524564221064875
609,-0.000765800476074219,0.0000479345874832733
610,-0.000640869140625,0.0000496517781755421
611,-0.000798225402832031,0.0000532736165177701
612,-0.000761032104492188,0.0000455610356550308
613,-0.000729560852050781,0.0000370930580233803
614,-0.000810146331787109,0.0000337537056369693
615,-0.000752925872802734,0.0000472538165621599
616,-0.000898838043212891,0.0000461350731637449
617,-0.000764846801757813,0.0000498825001098883
618,-0.000802516937255859,0.0000415635458376546
619,-0.000720024108886719,0.0000420894897664141
620,-0.000645637512207031,0.0000439647997259503
