Wavelength (nm),Absorbance (AU),Std.Dev.
190,0.727543830871582,0.00021226056754948
191,0.707036972045898,0.000118838687846719
192,0.69096851348877,0.000115189488253769
193,0.676508903503418,0.0000914284737048311
194,0.664796829223633,0.00006653202772747
195,0.654300689697266,0.0000746611882249826
196,0.645655155181885,0.0000476515184418486
197,0.637860298156738,0.0000453822735455684
198,0.630485057830811,0.0000566814787564057
199,0.62349271774292,0.0000733818148829945
200,0.616668224334717,0.0000576154664533185
201,0.609796047210693,0.0000566493782420053
202,0.60311222076416,0.0000556409917671769
203,0.596145153045654,0.0000849613563586192
204,0.589053630828857,0.0000676151055026691
205,0.581598281860352,0.0000661962647975093
206,0.573813438415527,0.0000488659220674779
207,0.566022396087647,0.0000546233563231317
208,0.55771541595459,0.0000668780051260788
209,0.549332618713379,0.0000778180126839513
210,0.540899276733398,0.0000710327335230791
211,0.53238582611084,0.0000732950054894414
212,0.524024963378906,0.0000648410875342233
213,0.515649795532227,0.0000544774714787938
214,0.50740385055542,0.0000596075057296786
215,0.499358654022217,0.0000570861910035179
216,0.491511821746826,0.0000600843201829722
217,0.483902931213379,0.0000532981520706865
218,0.476582050323486,0.0000736616955464459
219,0.469338893890381,0.0000602213427558665
220,0.462456703186035,0.0000508832393060041
221,0.455670833587647,0.0000383453871498583
222,0.449097633361816,0.0000464126943965676
223,0.442512035369873,0.0000569256499516426
224,0.436353206634522,0.0000408148653450534
225,0.430103302001953,0.0000374096908882323
226,0.424007415771484,0.0000466813592930619
227,0.417988777160645,0.0000382912411145902
228,0.411993503570557,0.0000396678650913417
229,0.406118392944336,0.0000653562687649514
230,0.400335311889648,0.0000586984411277592
231,0.394693374633789,0.0000416236779184465
232,0.389007568359375,0.0000536754305203153
233,0.383458614349365,0.0000626401430164703
234,0.378116607666016,0.0000613102079789941
235,0.372716903686523,0.0000455285856597613
236,0.367517948150635,0.0000442650273707365
237,0.362580299377441,0.0000523294836607487
238,0.357868194580078,0.0000392935229153262
239,0.353271484375,0.0000379819579177857
240,0.348902225494385,0.0000456868727378978
241,0.344650268554687,0.0000430337279708168
242,0.340685367584229,0.0000427720538741857
243,0.336931228637695,0.0000418531575345835
244,0.333325386047363,0.000052792355760521
245,0.330001354217529,0.0000525127406995247
246,0.326918601989746,0.0000419447333661912
247,0.32406759262085,0.0000479369591324588
248,0.321245193481445,0.0000467798881925063
249,0.318811416625977,0.000050497482809501
250,0.316455841064453,0.0000471430163504614
251,0.314183235168457,0.0000468187560504386
252,0.312049865722656,0.0000373267871601249
253,0.309934616088867,0.0000449379494241678
254,0.307877540588379,0.000041497162926751
255,0.305986404418945,0.0000562243382325418
256,0.30375862121582,0.0000401011261633917
257,0.301744937896729,0.0000462114007552556
258,0.299624443054199,0.0000471273387932046
259,0.297416687011719,0.0000598729769348242
260,0.295009613037109,0.0000609531447649948
261,0.292627811431885,0.0000672272753187657
262,0.290136814117432,0.0000427015595759335
263,0.287320613861084,0.0000397801952944683
264,0.284581661224365,0.000058296146013371
265,0.281594753265381,0.0000549253486632611
266,0.278554916381836,0.000056500676130671
267,0.27525806427002,0.0000558093029257588
268,0.271964550018311,0.0000666122907298246
269,0.268386840820312,0.0000556420133682523
270,0.264937877655029,0.0000608364611234678
271,0.261367321014404,0.0000577947487155953
272,0.257707118988037,0.0000646356241757898
273,0.253976821899414,0.0000663403712823436
274,0.250102043151855,0.0000541960620283031
275,0.246377944946289,0.0000472910929421136
276,0.242503643035889,0.0000502967147334833
277,0.238731861114502,0.0000450440783324255
278,0.235007286071777,0.0000531058319147731
279,0.231253623962402,0.000046210170665397
280,0.227478981018066,0.0000424311395743547
281,0.22377347946167,0.0000420381380292189
282,0.220160484313965,0.0000337907347457413
283,0.216532707214355,0.0000297612861397002
284,0.212828159332275,0.0000421973944197365
285,0.209299564361572,0.0000335874156599104
286,0.205770015716553,0.0000381141760032512
287,0.202263832092285,0.0000526694648467701
288,0.198763847351074,0.0000539110749879198
289,0.19526481628418,0.0000451726139410294
290,0.191962242126465,0.0000382221494442898
291,0.188646793365479,0.0000485379474030892
292,0.185407161712646,0.0000324766013764109
293,0.182229995727539,0.0000376912552745237
294,0.179201602935791,0.000033011288720384
295,0.176267147064209,0.0000397358735363483
296,0.173328876495361,0.0000482831471045484
297,0.17037296295166,0.0000497809771765861
298,0.167619228363037,0.0000388527197409347
299,0.164799213409424,0.0000419413452343456
300,0.162121295928955,0.0000383097928938177
301,0.15947437286377,0.0000568287075267241
302,0.156904220581055,0.000043145858715207
303,0.154262542724609,0.000048759951161503
304,0.151859760284424,0.0000473535551698197
305,0.149489402770996,0.0000581643612267843
306,0.147081851959229,0.0000467835334259454
307,0.144780158996582,0.0000520124215012489
308,0.142543792724609,0.0000592986837183557
309,0.140348434448242,0.0000602137910168242
310,0.138139724731445,0.000063947756433252
311,0.136022090911865,0.000063131871165398
312,0.133971214294434,0.0000423755070980033
313,0.131981372833252,0.000037111442919651
314,0.12985897064209,0.0000482666621861441
315,0.127975940704346,0.0000523251384408076
316,0.125954627990723,0.0000703670130823191
317,0.124183177947998,0.0000628937185391825
318,0.122220039367676,0.0000567586462181528
319,0.120320320129395,0.0000577917980217404
320,0.118567943572998,0.0000562718356823391
321,0.116808891296387,0.0000592977251156557
322,0.114965438842773,0.0000483701883427267
323,0.113122940063477,0.0000408294862192866
324,0.111401081085205,0.0000311106556173761
325,0.109757900238037,0.0000352392015862053
326,0.107978343963623,0.0000476001961738795
327,0.106241703033447,0.0000478301184973661
328,0.104671478271484,0.0000439376398017777
329,0.103081226348877,0.0000541162908901638
330,0.101462841033936,0.000063194867160909
331,0.0998935699462891,0.0000488694117011653
332,0.0982112884521484,0.0000449316243225243
333,0.0966200828552246,0.0000442020586973468
334,0.0950827598571777,0.0000616559849466003
335,0.0935697555541992,0.0000575769761967605
336,0.0920834541320801,0.0000306949453105539
337,0.0905566215515137,0.0000368100064572812
338,0.0890746116638184,0.0000545431679452088
339,0.0877566337585449,0.0000394609758656951
340,0.0863018035888672,0.0000528891732034106
341,0.0848689079284668,0.0000446829748793321
342,0.0834536552429199,0.0000473919525450075
343,0.0820832252502441,0.0000401337154626862
344,0.0807132720947266,0.0000581321017276602
345,0.0794072151184082,0.0000443137986180995
346,0.0781340599060059,0.0000466813592930619
347,0.076873779296875,0.0000475237069069493
348,0.0755367279052734,0.0000447185808755513
349,0.0743756294250488,0.0000381886731151122
350,0.0731334686279297,0.0000409351578059467
351,0.07196044921875,0.0000500690369250234
352,0.070796012878418,0.0000549118930368497
353,0.0696830749511719,0.0000546119080493337
354,0.0686831474304199,0.0000526165551152562
355,0.0675802230834961,0.0000493474625892458
356,0.0663843154907227,0.0000594566415041554
357,0.0651955604553223,0.0000589574004119789
358,0.0640816688537598,0.0000414820922297126
359,0.0629253387451172,0.0000518854923581522
360,0.0618143081665039,0.0000465911631047835
361,0.0607457160949707,0.0000457999546157148
362,0.0597281455993652,0.0000457105063468518
363,0.0585689544677734,0.0000544158742950732
364,0.0576057434082031,0.0000420726046653349
365,0.0565409660339356,0.0000456096673593453
366,0.0556807518005371,0.0000558164321765837
367,0.0545129776000977,0.0000496494884396385
368,0.0537486076354981,0.0000433240082492823
369,0.0528688430786133,0.0000380716474234008
370,0.0519042015075684,0.0000510995038017991
371,0.0511069297790527,0.0000496025255604109
372,0.0500879287719727,0.0000638000277255797
373,0.0492873191833496,0.0000566011933354337
374,0.0484347343444824,0.0000643235475703921
375,0.0475940704345703,0.0000676672082775388
376,0.046809196472168,0.0000684772028390893
377,0.0461082458496094,0.0000538963114751373
378,0.0453977584838867,0.0000382109939266007
379,0.044525146484375,0.0000606005438830491
380,0.0437712669372559,0.0000758620794543865
381,0.0430779457092285,0.0000759279891796375
382,0.0424208641052246,0.000095388886899299
383,0.0417065620422363,0.0000786824658673603
384,0.0408511161804199,0.00006330271444426
385,0.0402789115905762,0.000051310425723796
386,0.039588451385498,0.0000547283603501301
387,0.0389690399169922,0.0000622158295833591
388,0.0381512641906738,0.0000633709227933314
389,0.0373191833496094,0.0000599678418055057
390,0.0368432998657227,0.0000773329322572724
391,0.0361728668212891,0.0000624183300699385
392,0.0354423522949219,0.0000613491356875696
393,0.0348267555236816,0.000056330394350191
394,0.0342316627502441,0.0000595731652101489
395,0.0336575508117676,0.0000515050353984558
396,0.0330338478088379,0.00006411287939769
397,0.0325617790222168,0.0000640809533208173
398,0.0319671630859375,0.0000713632649377641
399,0.0312590599060059,0.0000856715953120259
400,0.0309295654296875,0.0000733043114131079
401,0.0303707122802734,0.0000635214392501901
402,0.0299625396728516,0.0000700139205364236
403,0.0294098854064941,0.000097554869480472
404,0.0289888381958008,0.0000812822052318587
405,0.0284571647644043,0.0000668848044352795
406,0.02783203125,0.0000844271126562426
407,0.0275812149047852,0.0000733415232999734
408,0.0272541046142578,0.0000806489389870015
409,0.0265135765075684,0.0000708676918150303
410,0.0260839462280273,0.0000845509061430489
411,0.025825023651123,0.0000926881165681291
412,0.0254168510437012,0.0000821600248086542
413,0.0248746871948242,0.0000685236730741879
414,0.0244393348693848,0.0000753297074070831
415,0.0240774154663086,0.0000655612077419175
416,0.0236935615539551,0.0000642581196896477
417,0.0232763290405273,0.000062192070177514
418,0.022951602935791,0.0000841789795328283
419,0.022679328918457,0.0000702101223728407
420,0.0222511291503906,0.0000799580703000816
421,0.0219945907592773,0.0000583633877684894
422,0.0214452743530273,0.0000445134574555835
423,0.0211305618286133,0.000065720547309952
424,0.0209217071533203,0.0000775194096229401
425,0.0206527709960937,0.0000735582174506873
426,0.0202798843383789,0.000049498131679272
427,0.0201268196105957,0.000045938750185724
428,0.0196290016174316,0.0000452719152504651
429,0.0195708274841309,0.0000614898109360039
430,0.0191068649291992,0.000065425811526448
431,0.0186877250671387,0.0000487109637565081
432,0.0185279846191406,0.0000473151266342389
433,0.0183477401733398,0.0000514630796937257
434,0.0179324150085449,0.000051545854192087
435,0.0177502632141113,0.0000624183300699385
436,0.0175685882568359,0.0000502978448824512
437,0.0172553062438965,0.0000568056969140451
438,0.0170097351074219,0.0000612879524729142
439,0.016840934753418,0.0000547512058044713
440,0.0165715217590332,0.00005392794262492
441,0.0164680480957031,0.0000673033309887413
442,0.0159544944763184,0.0000607794381754734
443,0.0159511566162109,0.0000592257856939251
444,0.015693187713623,0.0000651471950725691
445,0.0154104232788086,0.0000786419987796337
446,0.015317440032959,0.0000504682069457107
447,0.0149378776550293,0.00006124341719819
448,0.0147914886474609,0.0000601561778333428
449,0.0147585868835449,0.0000417933556292733
450,0.0144600868225098,0.000045533579471958
451,0.0143036842346191,0.0000414354754198844
452,0.0141773223876953,0.0000551999513098948
453,0.0139989852905273,0.0000655629417754748
454,0.0138320922851562,0.0000639264191765909
455,0.0137243270874023,0.0000554895874273025
456,0.0135889053344727,0.000083043624536705
457,0.0133132934570312,0.0000630309466137039
458,0.0131044387817383,0.0000570592994933485
459,0.0129818916320801,0.0000708532524314242
460,0.0127506256103516,0.0000644347989334445
461,0.0127005577087402,0.0000470331637080391
462,0.0126004219055176,0.0000424525687677662
463,0.0125055313110352,0.0000591451096600059
464,0.0122885704040527,0.0000510148908567218
465,0.0120911598205566,0.0000608859622936721
466,0.0117735862731934,0.0000636072887398675
467,0.0118999481201172,0.0000689767653536293
468,0.0116567611694336,0.0000617683598125888
469,0.0115599632263184,0.0000778486862141161
470,0.0114927291870117,0.000070898165300828
471,0.0113620758056641,0.0000755316681303024
472,0.0111122131347656,0.0000670155566816744
473,0.0110855102539062,0.0000686662064458661
474,0.0108704566955566,0.0000591210776775177
475,0.010857105255127,0.0000470041487986102
476,0.0106816291809082,0.0000530415702359652
477,0.0105652809143066,0.000054250574696838
478,0.0105452537536621,0.0000601618471503584
479,0.010408878326416,0.0000646584856795665
480,0.0102462768554687,0.0000638249697942815
481,0.0100383758544922,0.0000558184689381446
482,0.00993967056274414,0.0000466582174491399
483,0.00992107391357422,0.0000581379684225495
484,0.00961208343505859,0.0000816993366944403
485,0.0109639167785645,0.0000787055805758106
486,0.00872468948364258,0.0000374020926976618
487,0.00909519195556641,0.0000544409391855296
488,0.00918960571289063,0.0000419874004023719
489,0.0091710090637207,0.0000654622919021217
490,0.00905323028564453,0.0000717160549565152
491,0.00902748107910156,0.0000664362686166526
492,0.00901126861572266,0.0000524217344372246
493,0.00886964797973633,0.000070368628690651
494,0.00858306884765625,0.0000601051299165037
495,0.00864171981811523,0.0000715668876858163
496,0.00853157043457031,0.0000654952804476171
497,0.00830459594726563,0.0000899770364472609
498,0.00852823257446289,0.0000868236536644532
499,0.00829410552978516,0.0000816937703965838
500,0.00815629959106445,0.0000626510315890849
501,0.00829362869262695,0.0000683093153782558
502,0.00810003280639648,0.0000611579672736199
503,0.00807952880859375,0.0000745545227996615
504,0.00790691375732422,0.0000755768092790999
505,0.00788402557373047,0.0000673961713625444
506,0.00772762298583984,0.0000741109877414052
507,0.00752925872802734,0.0000719281628504114
508,0.00762367248535156,0.0000598473376385242
509,0.00749778747558594,0.0000547896062227068
510,0.00749540328979492,0.0000783726512785134
511,0.00716972351074219,0.0000642793468398242
512,0.00739240646362305,0.0000634300968544743
513,0.00718021392822266,0.0000492990589850629
514,0.00707340240478516,0.0000365091951276262
515,0.0070648193359375,0.000052068128631125
516,0.00700664520263672,0.0000467239590014394
517,0.00692653656005859,0.0000547013488758087
518,0.00690364837646484,0.0000499872284317044
519,0.00684499740600586,0.0000596618377948903
520,0.00671052932739258,0.0000644259764785618
521,0.00677299499511719,0.000056269815330999
522,0.00667762756347656,0.0000494142277141399
523,0.00654840469360352,0.0000550142799082644
524,0.00654077529907227,0.0000603363896626372
525,0.00646638870239258,0.0000761104403434064
526,0.00638914108276367,0.0000825107422710598
527,0.0062255859375,0.0000773784918142414
528,0.00631427764892578,0.0000569925138991455
529,0.00622844696044922,0.0000448531189586824
530,0.00619983673095703,0.0000483019801221752
531,0.00606298446655273,0.0000449581837695053
532,0.00600290298461914,0.0000437782218724219
533,0.00592136383056641,0.0000570084698088612
534,0.00601577758789063,0.0000403308124230348
535,0.00586032867431641,0.0000473463521952307
536,0.00573110580444336,0.0000662546313709996
537,0.00576925277709961,0.000055639970147344
538,0.0058131217956543,0.0000497798352931994
539,0.00556755065917969,0.0000709254199529764
540,0.00562667846679688,0.0000709718890272333
541,0.00567436218261719,0.0000478122885135846
542,0.00547647476196289,0.0000558612237762736
543,0.00542926788330078,0.0000657776076640772
544,0.00540637969970703,0.000058366309565778
545,0.00530481338500977,0.0000613102079789941
546,0.00521421432495117,0.0000580234608782339
547,0.0053253173828125,0.0000494843490175014
548,0.00514888763427734,0.0000548207219504716
549,0.00512504577636719,0.0000636037139912913
550,0.00518226623535156,0.0000652309049626375
551,0.00503635406494141,0.0000587129652921298
552,0.00502252578735352,0.0000637572471925671
553,0.00499248504638672,0.0000424967323523436
554,0.00498771667480469,0.0000334415523363904
555,0.0050048828125,0.0000267422335022306
556,0.00488138198852539,0.0000365745290612387
557,0.00476789474487305,0.0000383090509951414
558,0.00468206405639648,0.0000421866163743081
559,0.00473880767822266,0.0000516406056552007
560,0.00472497940063477,0.0000551061622904561
561,0.00461864471435547,0.0000644259764785618
562,0.0045475959777832,0.0000647041844546103
563,0.00460004806518555,0.0000403385635380028
564,0.0044403076171875,0.0000321149029550223
565,0.00448513031005859,0.000040060706991979
566,0.00448751449584961,0.0000479962122750651
567,0.00449323654174805,0.0000370002283755614
568,0.00437307357788086,0.0000472297516713335
569,0.00446605682373047,0.0000432846287456902
570,0.00444173812866211,0.0000430416526645132
571,0.00430583953857422,0.0000477718492464309
572,0.00410842895507813,0.0000434497828211506
573,0.00439023971557617,0.0000362466817809556
574,0.00421476364135742,0.0000415334471500854
575,0.00409364700317383,0.0000362521701979603
576,0.00419759750366211,0.0000355627505437096
577,0.00423669815063477,0.0000428158879186343
578,0.00391292572021484,0.0000532469346154254
579,0.00405073165893555,0.0000496071092619002
580,0.00416231155395508,0.0000419840157137784
581,0.0041508674621582,0.0000308593226784892
582,0.00377511978149414,0.0000478360603484514
583,0.00376319885253906,0.0000587497437715967
584,0.00406360626220703,0.0000549843075388873
585,0.00395727157592773,0.0000536849608650383
586,0.00368309020996094,0.0000330336663401284
587,0.0039215087890625,0.0000344331240319367
588,0.00366306304931641,0.0000434628634075388
589,0.00373506546020508,0.0000544847749980381
590,0.00376796722412109,0.000039710831344062
591,0.00358486175537109,0.0000385641591073281
592,0.00388431549072266,0.0000531774990149732
593,0.00362825393676758,0.0000415279723176807
594,0.0036468505859375,0.0000363179665075867
595,0.00359058380126953,0.0000296613218757721
596,0.00353908538818359,0.0000413028793600605
597,0.00365591049194336,0.0000409039019012737
598,0.00356197357177734,0.000034878446167227
599,0.0035548210144043,0.0000414320456431678
600,0.00351428985595703,0.0000473199319078647
601,0.0034489631652832,0.0000380417744167818
602,0.00348234176635742,0.0000402242597750914
603,0.00342321395874023,0.0000431333409245591
604,0.00335884094238281,0.000045333397903683
605,0.00346660614013672,0.0000330672043754307
606,0.00326395034790039,0.0000402221399753601
607,0.00329256057739258,0.0000395695839316129
608,0.00324296951293945,0.0000345986352012584
609,0.00320959091186523,0.0000332087212840021
610,0.00326442718505859,0.0000428663079596841
611,0.00319385528564453,0.0000350507747680225
612,0.00324440002441406,0.0000294198286413108
613,0.00319671630859375,0.0000306096401985175
614,0.00315093994140625,0.0000406970108895895
615,0.00314188003540039,0.0000338008265532572
616,0.00301551818847656,0.0000429226286321988
617,0.0031590461730957,0.000040096164600124
618,0.00302839279174805,0.0000344422024296676
619,0.00298070907592773,0.000034610955044215
620,0.00303554534912109,0.000038936754158977
621,0.0029292106628418,0.0000388995091238271
622,0.00302743911743164,0.0000456868727378978
623,0.00293970108032227,0.0000381611261337377
624,0.00301265716552734,0.00004363255418247
625,0.0028996467590332,0.0000422613324518594
626,0.00280475616455078,0.0000410093817365718
627,0.00285863876342773,0.0000645458585437233
628,0.00278568267822266,0.000051404505339158
629,0.002899169921875,0.0000398957713488721
630,0.00276327133178711,0.0000375530075828526
631,0.00275135040283203,0.0000360422342707281
632,0.00277042388916016,0.000051071686068183
633,0.00280666351318359,0.0000589998074928907
634,0.00270414352416992,0.0000464065702994799
635,0.00267410278320312,0.0000371106770641504
636,0.00263404846191406,0.0000389717757940529
637,0.00263309478759766,0.0000470549131490665
638,0.0027318000793457,0.0000514509282360176
639,0.00263166427612305,0.0000448645234217551
640,0.00257301330566406,0.0000632200479827494
641,0.00255298614501953,0.0000510327157667195
642,0.00249814987182617,0.0000463783890372766
643,0.00255393981933594,0.0000599308623677235
644,0.00257730484008789,0.0000504389140895631
645,0.00254344940185547,0.0000480139739588271
646,0.00253486633300781,0.0000412457251077765
647,0.00247621536254883,0.0000469387996762265
648,0.00251150131225586,0.0000470766525418406
649,0.00248098373413086,0.0000587855322866431
650,0.00243091583251953,0.0000432123397836491
651,0.00244283676147461,0.0000437989919942748
652,0.00246620178222656,0.0000422175958384728
653,0.00250053405761719,0.0000585258125421132
654,0.00229978561401367,0.0000515105533418619
655,0.00335216522216797,0.000048318452991079
656,0.00265741348266602,0.0000330190365357667
657,0.000652313232421875,0.000029327423527867
658,0.00240898132324219,0.000030720860719485
659,0.00230169296264648,0.0000367435442134132
660,0.00230169296264648,0.0000469484867673783
661,0.00230216979980469,0.0000504580690353445
662,0.00229597091674805,0.0000485964677727829
663,0.00228595733642578,0.0000426722635887426
664,0.00219631195068359,0.0000514697065523896
665,0.0022425651550293,0.0000522327170616592
666,0.00223350524902344,0.0000502469630139141
667,0.00220298767089844,0.0000375734367715681
668,0.00217342376708984,0.0000423815430651442
669,0.00215721130371094,0.0000442740155847208
670,0.00220012664794922,0.0000379415284701337
671,0.00217962265014648,0.0000336296991014585
672,0.00212955474853516,0.0000326110950976329
673,0.00209856033325195,0.000053094056429559
674,0.00216865539550781,0.0000510249181347969
675,0.00218772888183594,0.0000356449729748359
676,0.0021514892578125,0.0000315353074024947
677,0.00214052200317383,0.0000467653044173854
678,0.00211715698242187,0.0000462446008132984
679,0.00214099884033203,0.0000451083919192591
680,0.00213909149169922,0.0000393686761100598
681,0.0019989013671875,0.0000324144065844676
682,0.00201320648193359,0.0000371535406605597
683,0.00212669372558594,0.000043278062011412
684,0.0020599365234375,0.0000493704952451507
685,0.00206470489501953,0.0000331607590061255
686,0.00205183029174805,0.0000420834119104824
687,0.00205802917480469,0.0000385317175483451
688,0.00198459625244141,0.0000333862636490156
689,0.00196123123168945,0.0000408037221149378
690,0.0020146369934082,0.0000293763231776095
691,0.00197172164916992,0.0000278363263416907
692,0.00198125839233398,0.0000381014970084664
693,0.00194883346557617,0.0000545254481252376
694,0.00194597244262695,0.000040705390507569
695,0.00196218490600586,0.0000417409586797264
696,0.00194072723388672,0.0000446524328560237
697,0.00199222564697266,0.0000505986915393155
698,0.00193643569946289,0.0000455959559765468
699,0.00198698043823242,0.000042498738697558
700,0.00189590454101562,0.0000450163068497162
701,0.00188398361206055,0.0000475751116887775
702,0.00192642211914062,0.0000471490447921109
703,0.00189304351806641,0.0000404202120837749
704,0.00189828872680664,0.0000347568171389426
705,0.001861572265625,0.0000393578455631895
706,0.00188922882080078,0.0000466618721875193
707,0.00189781188964844,0.0000273433993548024
708,0.00183343887329102,0.0000382682244180599
709,0.00187492370605469,0.0000504231339645427
710,0.00185585021972656,0.0000395228687002222
711,0.00184011459350586,0.0000367342608519175
712,0.00180387496948242,0.0000482372108195355
713,0.00185775756835937,0.0000442663115130431
714,0.00178050994873047,0.0000426935717548985
715,0.00179624557495117,0.000042670265402626
716,0.00171375274658203,0.0000407549346596558
717,0.00182390213012695,0.0000438456887945956
718,0.00181865692138672,0.0000563102085850656
719,0.00181674957275391,0.0000518197173572432
720,0.00180292129516602,0.0000382214058444056
721,0.00174665451049805,0.0000436403701349165
722,0.00175571441650391,0.0000519905592744408
723,0.00178813934326172,0.0000339610507594479
724,0.00178050994873047,0.0000325779599353634
725,0.00165414810180664,0.0000465166806893561
726,0.00170373916625977,0.0000371428293988464
727,0.00173425674438477,0.0000419460885423014
728,0.00169134140014648,0.0000439777271277192
729,0.00169754028320312,0.0000334219991028924
730,0.00168561935424805,0.000039031531726138
731,0.00162029266357422,0.0000436455799922902
732,0.00165367126464844,0.0000441441512024664
733,0.00165367126464844,0.0000444866324985146
734,0.00168228149414062,0.0000532597435967546
735,0.00164556503295898,0.0000557073568686126
736,0.00161075592041016,0.0000565067122052709
737,0.00159835815429687,0.0000503351255632082
738,0.00158119201660156,0.0000392196750926555
739,0.0016789436340332,0.0000515348252739317
740,0.00165843963623047,0.000064933946726033
741,0.00162649154663086,0.0000551978917254935
742,0.00169658660888672,0.0000579175606687126
743,0.00166606903076172,0.0000483854632012678
744,0.00162124633789062,0.0000544357182850922
745,0.00159740447998047,0.000042887519717256
746,0.00160312652587891,0.0000473487533085114
747,0.00161361694335937,0.0000502503567413687
748,0.00162744522094727,0.0000532554742786237
749,0.00163745880126953,0.0000403216500934279
750,0.00165033340454102,0.0000386355817774861
751,0.0015721321105957,0.0000491720618305083
752,0.00152826309204102,0.000041486888045338
753,0.00165557861328125,0.000049322114244699
754,0.00158500671386719,0.0000575206748761886
755,0.00166416168212891,0.0000434353896263199
756,0.00164651870727539,0.0000478063437078977
757,0.00163793563842773,0.000046433510285035
758,0.00159311294555664,0.0000341621461947467
759,0.00164699554443359,0.0000296363980019127
760,0.00159311294555664,0.0000396714473897688
761,0.00157880783081055,0.0000433384384351677
762,0.00153541564941406,0.0000429907771602272
763,0.00156497955322266,0.0000383964960845898
764,0.0015716552734375,0.000043748347546432
765,0.00162363052368164,0.0000386863073345882
766,0.00156974792480469,0.0000600578246392068
767,0.00155878067016602,0.0000579989641402749
768,0.00166034698486328,0.000050198294374407
769,0.00155544281005859,0.000052072495297405
770,0.00155115127563477,0.0000474123385024354
771,0.00161218643188477,0.0000473595568117963
772,0.00159168243408203,0.0000420530094544802
773,0.00159597396850586,0.0000391188148996338
774,0.00149631500244141,0.0000356999480990964
775,0.00157833099365234,0.0000589651130588264
776,0.00155925750732422,0.0000521085063319136
777,0.00143241882324219,0.0000318527578593528
778,0.00156831741333008,0.0000422848641982769
779,0.00155258178710937,0.0000481168624309681
780,0.00156927108764648,0.0000373541885573259
781,0.00154638290405273,0.0000406054209124422
782,0.00146579742431641,0.0000462765487278609
783,0.00149106979370117,0.0000429464598282168
784,0.00153350830078125,0.0000353101054840249
785,0.00156974792480469,0.0000456744290844632
786,0.00155830383300781,0.0000486665993290514
787,0.00154590606689453,0.0000562293930598212
788,0.00159692764282227,0.0000478610080676624
789,0.00154590606689453,0.0000416884958741659
790,0.00154590606689453,0.0000435216773950619
791,0.00148773193359375,0.0000500962767349498
792,0.00148153305053711,0.0000524878380056554
793,0.00148630142211914,0.0000461461608084962
794,0.00150203704833984,0.000050658197637599
795,0.00148487091064453,0.0000455448135474129
796,0.00146865844726562,0.0000618695064315759
797,0.00146770477294922,0.0000609904363835124
798,0.00144720077514648,0.0000635965638913315
799,0.00139284133911133,0.0000562496078264577
800,0.00149106979370117,0.0000602298373305046
801,0.0014185905456543,0.0000449164404445388
802,0.00150012969970703,0.0000337368607883122
803,0.00153350830078125,0.0000620731367345087
804,0.00139379501342773,0.0000377131168602686
805,0.00150871276855469,0.0000417082623397008
806,0.00140190124511719,0.0000545983751763594
807,0.00151205062866211,0.0000549739684501103
808,0.00146007537841797,0.0000620767996228212
809,0.00146102905273437,0.0000608364611234678
810,0.00147485733032227,0.0000517121049357677
811,0.00139904022216797,0.0000482843243833563
812,0.00138092041015625,0.0000318447262898712
813,0.00145769119262695,0.0000246541411912608
814,0.00135135650634766,0.0000391260797083022
815,0.00134563446044922,0.0000657430315432776
816,0.00135517120361328,0.0000497878279269353
817,0.00143337249755859,0.0000553213310709884
818,0.00143289566040039,0.0000559405389241577
819,0.00143766403198242,0.0000490157519739411
820,0.00138425827026367,0.0000541278439892424
821,0.0013737678527832,0.0000595388048838546
822,0.00146484375,0.0000543332873579098
823,0.00143003463745117,0.000046576520237174
824,0.00141286849975586,0.0000449569193897323
825,0.00141477584838867,0.000057204562204242
826,0.00139570236206055,0.0000615877232388404
827,0.0013270378112793,0.0000456233746214051
828,0.00140094757080078,0.0000458334527110933
829,0.00140380859375,0.0000599280168504336
830,0.00134611129760742,0.0000675663278234744
831,0.00142335891723633,0.0000489194024293022
832,0.00133419036865234,0.0000531004797452106
833,0.00133180618286133,0.000047942887742142
834,0.0014338493347168,0.0000507915516752433
835,0.00133466720581055,0.0000641642824416404
836,0.00141382217407227,0.000071555767044356
837,0.00130176544189453,0.0000558744507863236
838,0.00133180618286133,0.0000520779531153719
839,0.00135612487792969,0.0000479322157167404
840,0.00143098831176758,0.0000403075501349265
841,0.0013432502746582,0.0000556614202261268
842,0.0013427734375,0.0000549543188224275
843,0.00142574310302734,0.0000664585107076948
844,0.00139904022216797,0.0000578792713079809
845,0.00134611129760742,0.0000405830163747478
846,0.00136852264404297,0.0000452317182034709
847,0.00143527984619141,0.0000694318130740326
848,0.00134134292602539,0.000055767527582927
849,0.00136995315551758,0.0000613602533539789
850,0.00136852264404297,0.0000500542758384234
851,0.0013885498046875,0.0000592037067572221
852,0.0012969970703125,0.0000545598401656639
853,0.00139045715332031,0.0000436064908899094
854,0.00135135650634766,0.0000489612158774473
855,0.00130319595336914,0.0000568407093658287
856,0.00133657455444336,0.0000392073535992017
857,0.00133085250854492,0.0000616615163676805
858,0.00142049789428711,0.000050710908779699
859,0.00135278701782227,0.0000817661027121435
860,0.00136947631835937,0.0000742045032205509
861,0.00135135650634766,0.0000504174970086538
862,0.00138378143310547,0.0000495681342884677
863,0.00131988525390625,0.0000513469712213096
864,0.00139427185058594,0.0000545056368033736
865,0.00136709213256836,0.0000669340787710823
866,0.00141096115112305,0.0000655889467775322
867,0.00140905380249023,0.0000620071677449072
868,0.0013575553894043,0.0000721806095783779
869,0.00143527984619141,0.0000656132088137911
870,0.00141811370849609,0.0000636197987780924
871,0.00146484375,0.000061705749885828
872,0.00137186050415039,0.0000483466791367972
873,0.00135660171508789,0.0000610370188667284
874,0.00140094757080078,0.0000548797932295763
875,0.00131082534790039,0.0000491350555698906
876,0.0014805793762207,0.000056755641657938
877,0.00137567520141602,0.0000331864617039563
878,0.00135278701782227,0.0000465350070905909
879,0.00133514404296875,0.0000588116344853843
880,0.0013427734375,0.0000519325798634142
881,0.00137710571289062,0.000071555767044356
882,0.00143337249755859,0.0000588183998312305
883,0.00129795074462891,0.0000586519396321927
884,0.00135993957519531,0.0000491928656183223
885,0.00138235092163086,0.0000502379119532239
886,0.00147008895874023,0.0000632020627051578
887,0.00144290924072266,0.0000621024337918258
888,0.00130128860473633,0.0000453007848465442
889,0.00134563446044922,0.0000462556622038947
890,0.00138282775878906,0.0000475332747964981
891,0.00135993957519531,0.0000524412490744251
892,0.00130605697631836,0.0000582356596603278
893,0.00141429901123047,0.0000490991791569561
894,0.00139141082763672,0.0000557042956043229
895,0.00142288208007812,0.0000587932674795825
896,0.00133180618286133,0.0000711894082849001
897,0.00132226943969727,0.0000566373358585405
898,0.00132226943969727,0.0000690163105856889
899,0.00128316879272461,0.0000591518368654616
900,0.00131702423095703,0.0000558174505666542
901,0.00139093399047852,0.0000691775523349425
902,0.00137567520141602,0.0000664071715646849
903,0.00146341323852539,0.0000703023583040394
904,0.00139808654785156,0.0000720702729412425
905,0.00134706497192383,0.0000515094498004694
906,0.00145435333251953,0.0000517439727425502
907,0.0013585090637207,0.000067399544966419
908,0.00146484375,0.0000687538996164203
909,0.00135135650634766,0.000110652936800692
910,0.00136184692382812,0.0000507041827489274
911,0.00133848190307617,0.0000383550215762905
912,0.00131893157958984,0.0000603872420860446
913,0.00141572952270508,0.0000872025527236643
914,0.00126075744628906,0.000103323031359957
915,0.0013890266418457,0.0000464396308294872
916,0.00122785568237305,0.0000299222440748783
917,0.00135326385498047,0.0000456570022719796
918,0.00133752822875977,0.0000750954186241947
919,0.0013270378112793,0.0000476586752946425
920,0.00126743316650391,0.0000468078277275392
921,0.00136089324951172,0.0000808952517329148
922,0.00126171112060547,0.0000968108614865606
923,0.00139141082763672,0.000076071594000032
924,0.00127220153808594,0.0000848904074056533
925,0.00123262405395508,0.000101269256229082
926,0.00123071670532227,0.0000646760659527861
927,0.0012669563293457,0.000074656619975324
928,0.00123310089111328,0.0000676672082775388
929,0.00123310089111328,0.0000841884327619681
930,0.00116157531738281,0.0000783029918457922
931,0.00116395950317383,0.0000781911168803277
932,0.00110149383544922,0.0000688827544393324
933,0.00110864639282227,0.0000733570226816422
934,0.000983715057373047,0.0000805600820392841
935,0.00108242034912109,0.0000684871634010231
936,0.00105094909667969,0.0000534355557303946
937,0.00114154815673828,0.0000597484760583604
938,0.00101661682128906,0.0000751907337369171
939,0.000971317291259766,0.000109947936900221
940,0.000984668731689453,0.000071136688991438
941,0.00105762481689453,0.000103827937955612
942,0.000940322875976563,0.0000683858300857451
943,0.000968456268310547,0.0000795589616384521
944,0.000897884368896484,0.0000985289117301325
945,0.0009002685546875,0.000152650462672486
946,0.000710487365722656,0.000071581183114791
947,0.000668525695800781,0.0000723662248069396
948,0.000751972198486328,0.0000739266776133861
949,0.000712394714355469,0.000098237713127457
950,0.000570297241210938,0.0000901411430238121
951,0.000721454620361328,0.0000955151367767656
952,0.000508308410644531,0.000107149458084633
953,0.000428676605224609,0.000130712537529903
954,0.000678539276123047,0.000108543053056225
955,0.000492572784423828,0.000101439750866507
956,0.000654220581054688,0.000157211699694009
957,0.000337600708007812,0.000175910908510877
958,0.000313758850097656,0.000146354056047157
959,0.000198841094970703,0.000110568656414156
960,0.000327110290527344,0.000114018933809882
961,0.000302314758300781,0.000133146050361841
962,0.000303268432617187,0.000103303223973178
963,0.000254631042480469,0.000120987034337091
964,0.0000987052917480469,0.000118957253099107
965,0.000268459320068359,0.000104932347762804
966,0.000414848327636719,0.000194885860816113
967,0.000349044799804687,0.000120612469317471
968,0.000329971313476562,0.000124131620618749
969,0.000350475311279297,0.000162418883831049
970,0.000274181365966797,0.000114331590565475
971,0.000550746917724609,0.000126137624493311
972,0.000294685363769531,0.000138876724636624
973,0.000520706176757813,0.000120335031866359
974,0.000492572784423828,0.000133854568935568
975,0.000586032867431641,0.000134332737550743
976,0.000458717346191406,0.000169820986625675
977,0.000774860382080078,0.000191387015283699
978,0.000687599182128906,0.000134940703363351
979,0.000517368316650391,0.000135834159970412
980,0.000696659088134766,0.000111247243356297
981,0.0007171630859375,0.000130955840253997
982,0.000806331634521484,0.000157624795838196
983,0.000865459442138672,0.000202282393284151
984,0.000812053680419922,0.000163876659576497
985,0.000884056091308594,0.000167722005490743
986,0.000692844390869141,0.000190744399786007
987,0.000669956207275391,0.000198858818343786
988,0.000699520111083984,0.000196063007895764
989,0.000932693481445313,0.000183839122925133
990,0.000898838043212891,0.000198959411438527
991,0.00107336044311523,0.000197182399064401
992,0.00113964080810547,0.000191406022833183
993,0.00131559371948242,0.000176674441175986
994,0.000895023345947266,0.000210440290863531
995,0.00127029418945312,0.000176354985248013
996,0.00119256973266602,0.000194913859646919
997,0.00135469436645508,0.000208307446390153
998,0.00129508972167969,0.000162799217149116
999,0.00147151947021484,0.000237987127925456
1000,0.00104999542236328,0.000234619388222936
1001,0.00130939483642578,0.000201073811006341
1002,0.00143861770629883,0.000145021224252856
1003,0.00127649307250977,0.000182044412007625
1004,0.00115346908569336,0.000141558810266839
1005,0.00117397308349609,0.00016480916014727
1006,0.00154685974121094,0.000227598726345687
1007,0.00114250183105469,0.000206949524054749
1008,0.00144529342651367,0.000210466220461025
1009,0.00122451782226562,0.000241255099292554
1010,0.0015711784362793,0.000226400756188045
1011,0.00121164321899414,0.000177665199517889
1012,0.00152444839477539,0.000310622719583881
1013,0.00139522552490234,0.000198652901086109
1014,0.00142526626586914,0.000162533636850027
1015,0.00104141235351562,0.000254128707121986
1016,0.00129556655883789,0.000267763489539114
1017,0.00177240371704102,0.00022429803593271
1018,0.00112819671630859,0.000248526868138644
1019,0.0011897087097168,0.000258535461054564
1020,0.00160026550292969,0.000280542391649858
1021,0.00149202346801758,0.000262459765892377
1022,0.00113821029663086,0.000297081412848473
1023,0.00116205215454102,0.000274174316979064
1024,0.00146913528442383,0.000371232963474754
1025,0.00174808502197266,0.00035875397452473
1026,0.0010075569152832,0.000289791481556834
1027,0.00136518478393555,0.000289584270087778
1028,0.00200414657592773,0.000354592475287764
1029,0.00136995315551758,0.000487274383508561
1030,0.00126361846923828,0.000254921979105528
1031,0.00139665603637695,0.000266230616380926
1032,0.000900745391845703,0.000315722376961648
1033,0.00128269195556641,0.000277117474438006
1034,0.00150680541992187,0.00032586648093997
1035,0.00188970565795898,0.000493026563153183
1036,0.0016942024230957,0.000414926148931118
1037,0.000927925109863281,0.000396352369549918
1038,0.000864028930664063,0.000360473753596156
1039,0.00179958343505859,0.000365783521453905
1040,0.00180864334106445,0.000367500102359813
1041,0.000899791717529297,0.000347545928408116
1042,0.00153064727783203,0.000357412909436996
1043,0.00104475021362305,0.000438208938011914
1044,0.00146484375,0.00041131565305127
1045,0.000728607177734375,0.000403457214267525
1046,0.000843048095703125,0.000591659422923013
1047,0.000758647918701172,0.000554864731701842
1048,0.000510692596435547,0.000538777880926326
1049,0.00111007690429687,0.000513541000976254
1050,0.00169515609741211,0.000607447869735089
1051,0.00150871276855469,0.000434708144800131
1052,0.000730037689208984,0.00028605142776974
1053,0.00122404098510742,0.000517619419249984
1054,0.00103425979614258,0.000508686697870919
1055,0.00122833251953125,0.000644943365643556
1056,0.000435829162597656,0.000797755263597424
1057,0.000525951385498047,0.000705172352821459
1058,0.000619888305664063,0.000526165551152562
1059,0.00136327743530273,0.00053467034204383
1060,0.000116825103759766,0.000397562104900488
1061,-0.000263690948486328,0.000507125228943431
1062,0.000477790832519531,0.000883396915246401
1063,0.000308990478515625,0.000945213937350064
1064,0.00102043151855469,0.000927873651189157
1065,0.000699996948242188,0.000837567149146329
1066,0.000361442565917969,0.000768185697823601
1067,-0.0000443458557128906,0.000789651548175219
1068,0.00104188919067383,0.000631444753923296
1069,0.0006256103515625,0.000693289088326765
1070,-0.000830173492431641,0.00101169338710027
1071,0.0022892951965332,0.000874905620534326
1072,0.00208377838134766,0.000974623423916579
1073,-0.000489711761474609,0.000964220858486456
1074,-0.000973224639892578,0.000851335826724119
1075,0.000258445739746094,0.000663965565254234
1076,0.00202608108520508,0.00156035574171037
1077,0.00168275833129883,0.00129979896830756
1078,0.00109481811523437,0.001028356350433
1079,0.00117349624633789,0.00102909192138488
1080,0.00123405456542969,0.00138485595343953
1081,0.00194454193115234,0.0014838338794194
1082,0.000447750091552734,0.00120747069966957
1083,-0.000426769256591797,0.0016311210148339
1084,0.000381946563720703,0.00126611175713556
1085,0.00294589996337891,0.00143773100904135
1086,-0.0001068115234375,0.00112943387983478
1087,0.000026702880859375,0.00146730534036626
1088,-0.000949382781982422,0.00143760954657152
1089,0.000806808471679688,0.00169341625791265
1090,0.00187110900878906,0.00171330450879759
1091,0.00207901000976562,0.00125653603302007
1092,0.00269794464111328,0.00176006014494242
1093,0.0009002685546875,0.00220086544581333
1094,-0.00199460983276367,0.00184561976491804
1095,-0.0000376701354980469,0.00225019288229714
1096,0.000682353973388672,0.00162407572072021
1097,0.00202560424804687,0.0016159554708902
1098,-0.000115871429443359,0.00178918655248609
1099,-0.000886917114257813,0.0016303357408683
1100,-0.000311851501464844,0.00215727117102917
