Wavelength (nm),Absorbance (AU),Std.Dev.
190,0.727543830871582,0.00021226056754948
191,0.707036972045898,0.000118838687846719
192,0.69096851348877,0.000115189488253769
193,0.676508903503418,0.0000914284737048311
194,0.664796829223633,0.00006653202772747
195,0.654300689697266,0.0000746611882249826
196,0.645655155181885,0.0000476515184418486
197,0.637860298156738,0.0000453822735455684
198,0.630485057830811,0.0000566814787564057
199,0.62349271774292,0.0000733818148829945
200,0.616668224334717,0.0000576154664533185
201,0.609796047210693,0.0000566493782420053
202,0.60311222076416,0.0000556409917671769
203,0.596145153045654,0.0000849613563586192
204,0.589053630828857,0.0000676151055026691
205,0.581598281860352,0.0000661962647975093
206,0.573813438415527,0.0000488659220674779
207,0.566022396087647,0.0000546233563231317
208,0.55771541595459,0.0000668780051260788
209,0.549332618713379,0.0000778180126839513
210,0.540899276733398,0.0000710327335230791
211,0.53238582611084,0.0000732950054894414
212,0.524024963378906,0.0000648410875342233
213,0.515649795532227,0.0000544774714787938
214,0.50740385055542,0.0000596075057296786
215,0.499358654022217,0.0000570861910035179
216,0.491511821746826,0.0000600843201829722
217,0.483902931213379,0.0000532981520706865
218,0.476582050323486,0.0000736616955464459
219,0.469338893890381,0.0000602213427558665
220,0.462456703186035,0.0000508832393060041
221,0.455670833587647,0.0000383453871498583
222,0.449097633361816,0.0000464126943965676
223,0.442512035369873,0.0000569256499516426
224,0.436353206634522,0.0000408148653450534
225,0.430103302001953,0.0000374096908882323
226,0.424007415771484,0.0000466813592930619
227,0.417988777160645,0.0000382912411145902
228,0.411993503570557,0.0000396678650913417
229,0.406118392944336,0.0000653562687649514
230,0.400335311889648,0.0000586984411277592
231,0.394693374633789,0.0000416236779184465
232,0.389007568359375,0.0000536754305203153
233,0.383458614349365,0.0000626401430164703
234,0.378116607666016,0.0000613102079789941
235,0.372716903686523,0.0000455285856597613
236,0.367517948150635,0.0000442650273707365
237,0.362580299377441,0.0000523294836607487
238,0.357868194580078,0.0000392935229153262
239,0.353271484375,0.0000379819579177857
240,0.348902225494385,0.0000456868727378978
241,0.344650268554687,0.0000430337279708168
242,0.340685367584229,0.0000427720538741857
243,0.336931228637695,0.0000418531575345835
244,0.333325386047363,0.000052792355760521
245,0.330001354217529,0.0000525127406995247
246,0.326918601989746,0.0000419447333661912
247,0.32406759262085,0.0000479369591324588
248,0.321245193481445,0.0000467798881925063
249,0.318811416625977,0.000050497482809501
250,0.316455841064453,0.0000471430163504614
251,0.314183235168457,0.0000468187560504386
252,0.312049865722656,0.0000373267871601249
253,0.309934616088867,0.0000449379494241678
254,0.307877540588379,0.000041497162926751
255,0.305986404418945,0.0000562243382325418
256,0.30375862121582,0.0000401011261633917
257,0.301744937896729,0.0000462114007552556
258,0.299624443054199,0.0000471273387932046
259,0.297416687011719,0.0000598729769348242
260,0.295009613037109,0.0000609531447649948
261,0.292627811431885,0.0000672272753187657
262,0.290136814117432,0.0000427015595759335
263,0.287320613861084,0.0000397801952944683
264,0.284581661224365,0.000058296146013371
265,0.281594753265381,0.0000549253486632611
266,0.278554916381836,0.000056500676130671
267,0.27525806427002,0.0000558093029257588
268,0.271964550018311,0.0000666122907298246
269,0.268386840820312,0.0000556420133682523
270,0.264937877655029,0.0000608364611234678
271,0.261367321014404,0.0000577947487155953
272,0.257707118988037,0.0000646356241757898
273,0.253976821899414,0.0000663403712823436
274,0.250102043151855,0.0000541960620283031
275,0.246377944946289,0.0000472910929421136
276,0.242503643035889,0.0000502967147334833
277,0.238731861114502,0.0000450440783324255
278,0.235007286071777,0.0000531058319147731
279,0.231253623962402,0.000046210170665397
280,0.227478981018066,0.0000424311395743547
281,0.22377347946167,0.0000420381380292189
282,0.220160484313965,0.0000337907347457413
283,0.216532707214355,0.0000297612861397002
284,0.212828159332275,0.0000421973944197365
285,0.209299564361572,0.0000335874156599104
286,0.205770015716553,0.0000381141760032512
287,0.202263832092285,0.0000526694648467701
288,0.198763847351074,0.0000539110749879198
289,0.19526481628418,0.0000451726139410294
290,0.191962242126465,0.0000382221494442898
291,0.188646793365479,0.0000485379474030892
292,0.185407161712646,0.0000324766013764109
293,0.182229995727539,0.0000376912552745237
294,0.179201602935791,0.000033011288720384
295,0.176267147064209,0.0000397358735363483
296,0.173328876495361,0.0000482831471045484
297,0.17037296295166,0.0000497809771765861
298,0.167619228363037,0.0000388527197409347
299,0.164799213409424,0.0000419413452343456
300,0.162121295928955,0.0000383097928938177
301,0.15947437286377,0.0000568287075267241
302,0.156904220581055,0.000043145858715207
303,0.154262542724609,0.000048759951161503
304,0.151859760284424,0.0000473535551698197
305,0.149489402770996,0.0000581643612267843
306,0.147081851959229,0.0000467835334259454
307,0.144780158996582,0.0000520124215012489
308,0.142543792724609,0.0000592986837183557
309,0.140348434448242,0.0000602137910168242
310,0.138139724731445,0.000063947756433252
311,0.136022090911865,0.000063131871165398
312,0.133971214294434,0.0000423755070980033
313,0.131981372833252,0.000037111442919651
314,0.12985897064209,0.0000482666621861441
315,0.127975940704346,0.0000523251384408076
316,0.125954627990723,0.0000703670130823191
317,0.124183177947998,0.0000628937185391825
318,0.122220039367676,0.0000567586462181528
319,0.120320320129395,0.0000577917980217404
320,0.118567943572998,0.0000562718356823391
321,0.116808891296387,0.0000592977251156557
322,0.114965438842773,0.0000483701883427267
323,0.113122940063477,0.0000408294862192866
324,0.111401081085205,0.0000311106556173761
325,0.109757900238037,0.0000352392015862053
326,0.107978343963623,0.0000476001961738795
327,0.106241703033447,0.0000478301184973661
328,0.104671478271484,0.0000439376398017777
329,0.103081226348877,0.0000541162908901638
330,0.101462841033936,0.000063194867160909
331,0.0998935699462891,0.0000488694117011653
332,0.0982112884521484,0.0000449316243225243
333,0.0966200828552246,0.0000442020586973468
334,0.0950827598571777,0.0000616559849466003
335,0.0935697555541992,0.0000575769761967605
336,0.0920834541320801,0.0000306949453105539
337,0.0905566215515137,0.0000368100064572812
338,0.0890746116638184,0.0000545431679452088
339,0.0877566337585449,0.0000394609758656951
340,0.0863018035888672,0.0000528891732034106
341,0.0848689079284668,0.0000446829748793321
342,0.0834536552429199,0.0000473919525450075
343,0.0820832252502441,0.0000401337154626862
344,0.0807132720947266,0.0000581321017276602
345,0.0794072151184082,0.0000443137986180995
346,0.0781340599060059,0.0000466813592930619
347,0.076873779296875,0.0000475237069069493
348,0.0755367279052734,0.0000447185808755513
349,0.0743756294250488,0.0000381886731151122
350,0.0731334686279297,0.0000409351578059467
351,0.07196044921875,0.0000500690369250234
352,0.070796012878418,0.0000549118930368497
353,0.0696830749511719,0.0000546119080493337
354,0.0686831474304199,0.0000526165551152562
355,0.0675802230834961,0.0000493474625892458
356,0.0663843154907227,0.0000594566415041554
357,0.0651955604553223,0.0000589574004119789
358,0.0640816688537598,0.0000414820922297126
359,0.0629253387451172,0.0000518854923581522
360,0.0618143081665039,0.0000465911631047835
361,0.0607457160949707,0.0000457999546157148
362,0.0597281455993652,0.0000457105063468518
363,0.0585689544677734,0.0000544158742950732
364,0.0576057434082031,0.0000420726046653349
365,0.0565409660339356,0.0000456096673593453
366,0.0556807518005371,0.0000558164321765837
367,0.0545129776000977,0.0000496494884396385
368,0.0537486076354981,0.0000433240082492823
369,0.0528688430786133,0.0000380716474234008
370,0.0519042015075684,0.0000510995038017991
371,0.0511069297790527,0.0000496025255604109
372,0.0500879287719727,0.0000638000277255797
373,0.0492873191833496,0.0000566011933354337
374,0.0484347343444824,0.0000643235475703921
375,0.0475940704345703,0.0000676672082775388
376,0.046809196472168,0.0000684772028390893
377,0.0461082458496094,0.0000538963114751373
378,0.0453977584838867,0.0000382109939266007
379,0.044525146484375,0.0000606005438830491
380,0.0437712669372559,0.0000758620794543865
381,0.0430779457092285,0.0000759279891796375
382,0.0424208641052246,0.000095388886899299
383,0.0417065620422363,0.0000786824658673603
384,0.0408511161804199,0.00006330271444426
385,0.0402789115905762,0.000051310425723796
386,0.039588451385498,0.0000547283603501301
387,0.0389690399169922,0.0000622158295833591
388,0.0381512641906738,0.0000633709227933314
389,0.0373191833496094,0.0000599678418055057
390,0.0368432998657227,0.0000773329322572724
391,0.0361728668212891,0.0000624183300699385
392,0.0354423522949219,0.0000613491356875696
393,0.0348267555236816,0.000056330394350191
394,0.0342316627502441,0.0000595731652101489
395,0.0336575508117676,0.0000515050353984558
396,0.0330338478088379,0.00006411287939769
397,0.0325617790222168,0.0000640809533208173
398,0.0319671630859375,0.0000713632649377641
399,0.0312590599060059,0.0000856715953120259
400,0.0309295654296875,0.0000733043114131079
401,0.0303707122802734,0.0000635214392501901
402,0.0299625396728516,0.0000700139205364236
403,0.0294098854064941,0.000097554869480472
404,0.0289888381958008,0.0000812822052318587
405,0.0284571647644043,0.0000668848044352795
406,0.02783203125,0.0000844271126562426
407,0.0275812149047852,0.0000733415232999734
408,0.0272541046142578,0.0000806489389870015
409,0.0265135765075684,0.0000708676918150303
410,0.0260839462280273,0.0000845509061430489
411,0.025825023651123,0.0000926881165681291
412,0.0254168510437012,0.0000821600248086542
413,0.0248746871948242,0.0000685236730741879
414,0.0244393348693848,0.0000753297074070831
415,0.0240774154663086,0.0000655612077419175
416,0.0236935615539551,0.0000642581196896477
417,0.0232763290405273,0.000062192070177514
418,0.022951602935791,0.0000841789795328283
419,0.022679328918457,0.0000702101223728407
420,0.0222511291503906,0.0000799580703000816
421,0.0219945907592773,0.0000583633877684894
422,0.0214452743530273,0.0000445134574555835
423,0.0211305618286133,0.000065720547309952
424,0.0209217071533203,0.0000775194096229401
425,0.0206527709960937,0.0000735582174506873
426,0.0202798843383789,0.000049498131679272
427,0.0201268196105957,0.000045938750185724
428,0.0196290016174316,0.0000452719152504651
429,0.0195708274841309,0.0000614898109360039
430,0.0191068649291992,0.000065425811526448
431,0.0186877250671387,0.0000487109637565081
432,0.0185279846191406,0.0000473151266342389
433,0.0183477401733398,0.0000514630796937257
434,0.0179324150085449,0.000051545854192087
435,0.0177502632141113,0.0000624183300699385
436,0.0175685882568359,0.0000502978448824512
437,0.0172553062438965,0.0000568056969140451
438,0.0170097351074219,0.0000612879524729142
439,0.016840934753418,0.0000547512058044713
440,0.0165715217590332,0.00005392794262492
441,0.0164680480957031,0.0000673033309887413
442,0.0159544944763184,0.0000607794381754734
443,0.0159511566162109,0.0000592257856939251
444,0.015693187713623,0.0000651471950725691
445,0.0154104232788086,0.0000786419987796337
446,0.015317440032959,0.0000504682069457107
447,0.0149378776550293,0.00006124341719819
448,0.0147914886474609,0.0000601561778333428
449,0.0147585868835449,0.0000417933556292733
450,0.0144600868225098,0.000045533579471958
451,0.0143036842346191,0.0000414354754198844
452,0.0141773223876953,0.0000551999513098948
453,0.0139989852905273,0.0000655629417754748
454,0.0138320922851562,0.0000639264191765909
455,0.0137243270874023,0.0000554895874273025
456,0.0135889053344727,0.000083043624536705
457,0.0133132934570312,0.0000630309466137039
458,0.0131044387817383,0.0000570592994933485
459,0.0129818916320801,0.0000708532524314242
460,0.0127506256103516,0.0000644347989334445
461,0.0127005577087402,0.0000470331637080391
462,0.0126004219055176,0.0000424525687677662
463,0.0125055313110352,0.0000591451096600059
464,0.0122885704040527,0.0000510148908567218
465,0.0120911598205566,0.0000608859622936721
466,0.0117735862731934,0.0000636072887398675
467,0.0118999481201172,0.0000689767653536293
468,0.0116567611694336,0.0000617683598125888
469,0.0115599632263184,0.0000778486862141161
470,0.0114927291870117,0.000070898165300828
471,0.0113620758056641,0.0000755316681303024
472,0.0111122131347656,0.0000670155566816744
473,0.0110855102539062,0.0000686662064458661
474,0.0108704566955566,0.0000591210776775177
475,0.010857105255127,0.0000470041487986102
476,0.0106816291809082,0.0000530415702359652
477,0.0105652809143066,0.000054250574696838
478,0.0105452537536621,0.0000601618471503584
479,0.010408878326416,0.0000646584856795665
480,0.0102462768554687,0.0000638249697942815
481,0.0100383758544922,0.0000558184689381446
482,0.00993967056274414,0.0000466582174491399
483,0.00992107391357422,0.0000581379684225495
484,0.00961208343505859,0.0000816993366944403
485,0.0109639167785645,0.0000787055805758106
486,0.00872468948364258,0.0000374020926976618
487,0.00909519195556641,0.0000544409391855296
488,0.00918960571289063,0.0000419874004023719
489,0.0091710090637207,0.0000654622919021217
490,0.00905323028564453,0.0000717160549565152
491,0.00902748107910156,0.0000664362686166526
492,0.00901126861572266,0.0000524217344372246
493,0.00886964797973633,0.000070368628690651
494,0.00858306884765625,0.0000601051299165037
495,0.00864171981811523,0.0000715668876858163
496,0.00853157043457031,0.0000654952804476171
497,0.00830459594726563,0.0000899770364472609
498,0.00852823257446289,0.0000868236536644532
499,0.00829410552978516,0.0000816937703965838
500,0.00815629959106445,0.0000626510315890849
501,0.00829362869262695,0.0000683093153782558
502,0.00810003280639648,0.0000611579672736199
503,0.00807952880859375,0.0000745545227996615
504,0.00790691375732422,0.0000755768092790999
505,0.00788402557373047,0.0000673961713625444
506,0.00772762298583984,0.0000741109877414052
507,0.00752925872802734,0.0000719281628504114
508,0.00762367248535156,0.0000598473376385242
509,0.00749778747558594,0.0000547896062227068
510,0.00749540328979492,0.0000783726512785134
511,0.00716972351074219,0.0000642793468398242
512,0.00739240646362305,0.0000634300968544743
513,0.00718021392822266,0.0000492990589850629
514,0.00707340240478516,0.0000365091951276262
515,0.0070648193359375,0.000052068128631125
516,0.00700664520263672,0.0000467239590014394
517,0.00692653656005859,0.0000547013488758087
518,0.00690364837646484,0.0000499872284317044
519,0.00684499740600586,0.0000596618377948903
520,0.00671052932739258,0.0000644259764785618
521,0.00677299499511719,0.000056269815330999
522,0.00667762756347656,0.0000494142277141399
523,0.00654840469360352,0.0000550142799082644
524,0.00654077529907227,0.0000603363896626372
525,0.00646638870239258,0.0000761104403434064
526,0.00638914108276367,0.0000825107422710598
527,0.0062255859375,0.0000773784918142414
528,0.00631427764892578,0.0000569925138991455
529,0.00622844696044922,0.0000448531189586824
530,0.00619983673095703,0.0000483019801221752
531,0.00606298446655273,0.0000449581837695053
532,0.00600290298461914,0.0000437782218724219
533,0.00592136383056641,0.0000570084698088612
534,0.00601577758789063,0.0000403308124230348
535,0.00586032867431641,0.0000473463521952307
536,0.00573110580444336,0.0000662546313709996
537,0.00576925277709961,0.000055639970147344
538,0.0058131217956543,0.0000497798352931994
539,0.00556755065917969,0.0000709254199529764
540,0.00562667846679688,0.0000709718890272333
541,0.00567436218261719,0.0000478122885135846
542,0.00547647476196289,0.0000558612237762736
543,0.00542926788330078,0.0000657776076640772
544,0.00540637969970703,0.000058366309565778
545,0.00530481338500977,0.0000613102079789941
546,0.00521421432495117,0.0000580234608782339
547,0.0053253173828125,0.0000494843490175014
548,0.00514888763427734,0.0000548207219504716
549,0.00512504577636719,0.0000636037139912913
550,0.00518226623535156,0.0000652309049626375
551,0.00503635406494141,0.0000587129652921298
552,0.00502252578735352,0.0000637572471925671
553,0.00499248504638672,0.0000424967323523436
554,0.00498771667480469,0.0000334415523363904
555,0.0050048828125,0.0000267422335022306
556,0.00488138198852539,0.0000365745290612387
557,0.00476789474487305,0.0000383090509951414
558,0.00468206405639648,0.0000421866163743081
559,0.00473880767822266,0.0000516406056552007
560,0.00472497940063477,0.0000551061622904561
561,0.00461864471435547,0.0000644259764785618
562,0.0045475959777832,0.0000647041844546103
563,0.00460004806518555,0.0000403385635380028
564,0.0044403076171875,0.0000321149029550223
565,0.00448513031005859,0.000040060706991979
566,0.00448751449584961,0.0000479962122750651
567,0.00449323654174805,0.0000370002283755614
568,0.00437307357788086,0.0000472297516713335
569,0.00446605682373047,0.0000432846287456902
570,0.00444173812866211,0.0000430416526645132
571,0.00430583953857422,0.0000477718492464309
572,0.00410842895507813,0.0000434497828211506
573,0.00439023971557617,0.0000362466817809556
574,0.00421476364135742,0.0000415334471500854
575,0.00409364700317383,0.0000362521701979603
576,0.00419759750366211,0.0000355627505437096
577,0.00423669815063477,0.0000428158879186343
578,0.00391292572021484,0.0000532469346154254
579,0.00405073165893555,0.0000496071092619002
580,0.00416231155395508,0.0000419840157137784
581,0.0041508674621582,0.0000308593226784892
582,0.00377511978149414,0.0000478360603484514
583,0.00376319885253906,0.0000587497437715967
584,0.00406360626220703,0.0000549843075388873
585,0.00395727157592773,0.0000536849608650383
586,0.00368309020996094,0.0000330336663401284
587,0.0039215087890625,0.0000344331240319367
588,0.00366306304931641,0.0000434628634075388
589,0.00373506546020508,0.0000544847749980381
590,0.00376796722412109,0.000039710831344062
591,0.00358486175537109,0.0000385641591073281
592,0.00388431549072266,0.0000531774990149732
593,0.00362825393676758,0.0000415279723176807
594,0.0036468505859375,0.0000363179665075867
595,0.00359058380126953,0.0000296613218757721
596,0.00353908538818359,0.0000413028793600605
597,0.00365591049194336,0.0000409039019012737
598,0.00356197357177734,0.000034878446167227
599,0.0035548210144043,0.0000414320456431678
600,0.00351428985595703,0.0000473199319078647
601,0.0034489631652832,0.0000380417744167818
602,0.00348234176635742,0.0000402242597750914
603,0.00342321395874023,0.0000431333409245591
604,0.00335884094238281,0.000045333397903683
605,0.00346660614013672,0.0000330672043754307
606,0.00326395034790039,0.0000402221399753601
607,0.00329256057739258,0.0000395695839316129
608,0.00324296951293945,0.0000345986352012584
609,0.00320959091186523,0.0000332087212840021
610,0.00326442718505859,0.0000428663079596841
611,0.00319385528564453,0.0000350507747680225
612,0.00324440002441406,0.0000294198286413108
613,0.00319671630859375,0.0000306096401985175
614,0.00315093994140625,0.0000406970108895895
615,0.00314188003540039,0.0000338008265532572
616,0.00301551818847656,0.0000429226286321988
617,0.0031590461730957,0.000040096164600124
618,0.00302839279174805,0.0000344422024296676
619,0.00298070907592773,0.000034610955044215
620,0.00303554534912109,0.000038936754158977
621,0.0029292106628418,0.0000388995091238271
622,0.00302743911743164,0.0000456868727378978
623,0.00293970108032227,0.0000381611261337377
624,0.00301265716552734,0.00004363255418247
625,0.0028996467590332,0.0000422613324518594
