Wavelength (nm),Absorbance (AU),Std.Dev.
190,0.623360633850098,0.000108465518552136
191,0.603564739227295,0.0000704122361031069
192,0.587842464447022,0.0000617389042268353
193,0.574013710021973,0.0000814010052134903
194,0.563109397888184,0.0000497569921223503
195,0.553734302520752,0.0000541792778649931
196,0.546023368835449,0.0000521946136332389
197,0.539452075958252,0.0000448531189586824
198,0.533427238464356,0.0000811169944811301
199,0.52796745300293,0.0000636412388367032
200,0.522841453552246,0.0000447084106273244
201,0.517681121826172,0.0000537770004552362
202,0.512512683868408,0.0000493186566428362
203,0.507199764251709,0.0000519807182725446
204,0.501688957214356,0.0000578203150880343
205,0.495771884918213,0.0000672255842154583
206,0.489500522613525,0.000060499154873828
207,0.483135223388672,0.0000488263554550438
208,0.476261138916016,0.0000433135105490436
209,0.469287395477295,0.0000421036680182755
210,0.462232112884522,0.0000423305456230988
211,0.45484733581543,0.0000523772572884484
212,0.447651863098145,0.0000502695835359324
213,0.440335750579834,0.0000500326941088751
214,0.433163642883301,0.0000564584055392877
215,0.425970077514648,0.0000692251947172528
216,0.419067859649658,0.0000574405728066559
217,0.41228723526001,0.0000607232977913988
218,0.405679225921631,0.0000508430065605301
219,0.399189472198486,0.0000447706671367516
220,0.393007278442383,0.0000465362285940649
221,0.386913299560547,0.0000417048549967867
222,0.381042957305908,0.0000412436578083186
223,0.375226497650146,0.0000423533678588907
224,0.369726657867432,0.0000385707915192969
225,0.364276885986328,0.0000447744759476086
226,0.358973026275635,0.0000517538587616544
227,0.35379695892334,0.0000384586239842018
228,0.348625659942627,0.00003855089086021
229,0.343660354614258,0.0000388044091002917
230,0.338768005371094,0.0000460499791967521
231,0.333992958068848,0.0000388161262921041
232,0.329191207885742,0.0000510382847744258
233,0.324594974517822,0.0000489356674601269
234,0.320122718811035,0.0000377778733829514
235,0.31558084487915,0.0000410405573093812
236,0.311220169067383,0.0000484676296907715
237,0.306997776031494,0.0000416925862565937
238,0.302939891815186,0.000030043106137371
239,0.298956394195557,0.0000309586318401199
240,0.295236110687256,0.000036981788190825
241,0.29156494140625,0.0000427820201007287
242,0.288024425506592,0.0000425208022467324
243,0.28464412689209,0.0000479084915934713
244,0.281428813934326,0.0000519030182807456
245,0.27838659286499,0.0000483748888129135
246,0.275529861450195,0.0000460018129789486
247,0.272839069366455,0.0000455784991600984
248,0.27028226852417,0.0000452920003957524
249,0.267923831939697,0.0000471056227923005
250,0.265683650970459,0.0000465972629415628
251,0.263437747955322,0.0000382437075515514
252,0.26136302947998,0.000024041886462716
253,0.259319305419922,0.000032056439698845
254,0.257259845733643,0.0000413407091311827
255,0.255361080169678,0.0000461707904861723
256,0.253294944763184,0.0000406271135260836
257,0.251386165618896,0.0000557960604717639
258,0.249257564544678,0.0000456694506737356
259,0.247200965881348,0.0000507277199549593
260,0.245083808898926,0.0000617830823392697
261,0.242873191833496,0.0000627199486514726
262,0.240676403045654,0.0000447630485427823
263,0.238234996795654,0.0000561960227972679
264,0.235798358917236,0.0000597817650343039
265,0.233368873596191,0.0000551401921290351
266,0.230822563171387,0.0000502322542121222
267,0.228139400482178,0.0000398173303405288
268,0.225505352020264,0.0000469218424544137
269,0.222765922546387,0.000051511656859613
270,0.220000743865967,0.0000641376998037734
271,0.217307567596436,0.0000819300045553221
272,0.214569568634033,0.0000710487365722656
273,0.211664199829102,0.0000654119088889075
274,0.208712100982666,0.0000518482301025342
275,0.205925941467285,0.0000463722604096929
276,0.203124046325684,0.0000447198519939517
277,0.200252056121826,0.0000332839509400295
278,0.197539329528809,0.0000390198792179927
279,0.194733619689941,0.0000470053581107474
280,0.191902160644531,0.0000459313253412094
281,0.189277172088623,0.0000378980562081492
282,0.186538696289062,0.000035403352749151
283,0.18388032913208,0.0000442162023278643
284,0.181121826171875,0.0000538097581292821
285,0.178486347198486,0.000044977145200851
286,0.175969123840332,0.0000429371937125913
287,0.173354148864746,0.0000417389159088499
288,0.170657157897949,0.0000392566163689048
289,0.168120384216309,0.0000399100167864999
290,0.165674209594727,0.0000293012456812615
291,0.163216590881348,0.0000413049436954984
292,0.160848140716553,0.0000346437865399714
293,0.158410549163818,0.0000276416499981016
294,0.156057357788086,0.0000319712113932996
295,0.153886318206787,0.000038444580031519
296,0.151642799377441,0.0000512738541784443
297,0.149435520172119,0.000046152319460155
298,0.147269248962402,0.0000468333231808628
299,0.145089626312256,0.0000517472682921035
300,0.143076419830322,0.0000391551254639141
301,0.141002655029297,0.0000424525687677662
302,0.138980388641357,0.0000381044806809071
303,0.136937141418457,0.0000438780878892366
304,0.135056495666504,0.0000476348149370367
305,0.13324499130249,0.0000573415270165051
306,0.131304740905762,0.0000473487533085114
307,0.129533767700195,0.0000528386351145395
308,0.127687931060791,0.0000513978700739359
309,0.125933647155762,0.0000515623931461459
310,0.124129772186279,0.0000645264809571734
311,0.122375965118408,0.000044912643672964
312,0.120770931243896,0.0000363680171311728
313,0.119124412536621,0.0000348539912273233
314,0.117410659790039,0.0000518964467533673
315,0.115822315216064,0.0000471876085812321
316,0.114220142364502,0.0000505604809412278
317,0.112557888031006,0.0000633727167585059
318,0.110939502716064,0.0000524650904403658
319,0.109479904174805,0.0000511606495743043
320,0.107934951782227,0.0000623527262948768
321,0.106468677520752,0.0000507030616570529
322,0.104947566986084,0.0000523034069262725
323,0.103331565856934,0.0000662529154409947
324,0.101846218109131,0.0000494786051086455
325,0.100367546081543,0.0000570622880647526
326,0.0989518165588379,0.0000427494551588085
327,0.0974326133728027,0.000054052178888624
328,0.0959911346435547,0.0000498414595598387
329,0.094658374786377,0.0000697487430695593
330,0.0932626724243164,0.0000698692551253138
331,0.0918569564819336,0.0000637643792746066
332,0.0904293060302734,0.0000612155661983119
333,0.0890631675720215,0.0000563354396613414
334,0.0876545906066895,0.0000640791791834862
335,0.0863485336303711,0.0000539226720551574
336,0.084993839263916,0.0000481428453732285
337,0.0835928916931152,0.0000681593642624116
338,0.082341194152832,0.0000595158869789604
339,0.0811481475830078,0.0000449050491667508
340,0.0798168182373047,0.0000400202469985147
341,0.0786151885986328,0.0000456706953272937
342,0.0772857666015625,0.0000561484612154076
343,0.0760321617126465,0.0000351746194709246
344,0.0748600959777832,0.0000314567995118535
345,0.0737090110778809,0.0000461190529709112
346,0.072537899017334,0.0000510483074572986
347,0.0713086128234863,0.0000575750016438287
348,0.0701661109924316,0.000060086212274742
349,0.0691366195678711,0.0000398865090861095
350,0.0679640769958496,0.0000401145901702936
351,0.066920280456543,0.0000567606491699388
352,0.0659170150756836,0.0000703104434027176
353,0.0648288726806641,0.0000754126671732682
354,0.0639100074768066,0.0000610314308460078
355,0.0628910064697266,0.000049102652213501
356,0.0618367195129395,0.0000429894549163233
357,0.0608787536621094,0.0000464090200352907
358,0.0598292350769043,0.0000378041960237013
359,0.0586676597595215,0.0000514641842294278
360,0.0576739311218262,0.0000553788419378585
361,0.056675910949707,0.0000554670460942565
362,0.0557365417480469,0.0000625602355766373
363,0.0547604560852051,0.0000888914504831775
364,0.0539155006408691,0.0000592708779455447
365,0.0529022216796875,0.0000544294525435227
366,0.0520768165588379,0.0000652047571662758
367,0.0510387420654297,0.0000607261060432501
368,0.0502681732177734,0.0000676588073180321
369,0.0494575500488281,0.0000593101857422673
370,0.048607349395752,0.00006357689697016
371,0.0478219985961914,0.0000593753217906843
372,0.0469484329223633,0.000056727591422059
373,0.0461740493774414,0.0000563394755849531
374,0.045405387878418,0.0000544639052018161
375,0.0445904731750488,0.0000600805358206718
376,0.043940544128418,0.0000655022232875632
377,0.0432238578796387,0.0000407046922719584
378,0.0425019264221191,0.0000435686714215366
379,0.0418262481689453,0.0000690838146569328
380,0.0411472320556641,0.0000667163178725918
381,0.0403351783752441,0.0000613546947725938
382,0.0398201942443848,0.0000830956303054503
383,0.0390830039978027,0.0000950402369034181
384,0.0384726524353027,0.0000601731841819572
385,0.0378460884094238,0.000057765234994477
386,0.0371780395507812,0.0000667895511178266
387,0.0365853309631348,0.0000662580630976934
388,0.0358409881591797,0.0000577888471772233
389,0.0353455543518066,0.000070798677072005
390,0.034675121307373,0.0000790126509278408
391,0.0341582298278809,0.0000652518156555813
392,0.0333437919616699,0.0000767989136706857
393,0.0329060554504395,0.0000867555381778124
394,0.0323653221130371,0.0000666293554901224
395,0.0318789482116699,0.0000457477977133023
396,0.0312504768371582,0.0000666344740660226
397,0.0307478904724121,0.0000739343663753923
398,0.0302362442016602,0.0000823700824039047
399,0.0298008918762207,0.0000952887210279896
400,0.029322624206543,0.000081780005438293
401,0.0288939476013184,0.0000733492734002032
402,0.0284485816955566,0.0000719408062259442
403,0.0278434753417969,0.000102265730211478
404,0.0274524688720703,0.0000753794942230735
405,0.0269131660461426,0.0000613602533539789
406,0.0265789031982422,0.0000769497579976224
407,0.0261688232421875,0.0000800575365808481
408,0.0257506370544434,0.0000851364670736304
409,0.0252656936645508,0.000061111476983911
410,0.0248966217041016,0.0000809626808434166
411,0.0245070457458496,0.0000958288474510742
412,0.024177074432373,0.0000688431324892958
413,0.0236997604370117,0.000050710908779699
414,0.0233364105224609,0.0000511428692533106
415,0.0229673385620117,0.00006144172143897
416,0.0225515365600586,0.0000705203306096502
417,0.0221724510192871,0.0000558021727641054
418,0.0218396186828613,0.0000692613153535313
419,0.0217328071594238,0.0000719028694297259
420,0.0213103294372559,0.0000707183426797736
421,0.0209403038024902,0.0000645106222388025
422,0.0206313133239746,0.0000595588508165652
423,0.0202369689941406,0.0000552226016685617
424,0.0199971199035645,0.0000653632263706308
425,0.0197525024414062,0.0000498813605505633
426,0.0194549560546875,0.0000685900045093738
427,0.0191998481750488,0.0000699017902866233
428,0.0188117027282715,0.0000729436178088739
429,0.0185656547546387,0.0000621829295272232
430,0.0182623863220215,0.0000794116420206637
431,0.0180149078369141,0.0000622395799192632
432,0.0178823471069336,0.0000600739126130052
433,0.0176010131835937,0.0000689388465534088
434,0.0172019004821777,0.0000705074325152379
435,0.0170798301696777,0.0000611616849701842
436,0.016878604888916,0.0000543803459240071
437,0.0165791511535645,0.0000647463393107817
438,0.0163865089416504,0.0000687092397223825
439,0.016143798828125,0.0000576894139982596
440,0.0159344673156738,0.0000508999935642227
441,0.0157818794250488,0.0000647656511167513
442,0.0153751373291016,0.0000635500686327142
443,0.0153241157531738,0.0000589978805595821
444,0.015141487121582,0.0000570652764796419
445,0.0148749351501465,0.0000612860974826
446,0.0146856307983398,0.0000575275920413522
447,0.0144081115722656,0.0000739405168093415
448,0.014312744140625,0.0000613139164446245
449,0.0142269134521484,0.0000506896066205514
450,0.0140509605407715,0.0000642475034845436
451,0.0137763023376465,0.0000606202387203607
452,0.0136637687683105,0.0000717873551116132
453,0.0134663581848145,0.0000687505924710028
454,0.0133428573608398,0.0000516714174751589
455,0.0131893157958984,0.0000559618737956241
456,0.0131196975708008,0.0000660070781722931
457,0.012814998626709,0.0000571080932418515
458,0.0125722885131836,0.0000602807796407446
459,0.0126042366027832,0.0000712245328016545
460,0.0123753547668457,0.0000615452521256417
461,0.0122323036193848,0.0000521673798592573
462,0.0121474266052246,0.0000585316397749192
463,0.0120444297790527,0.0000634354735774418
464,0.0118012428283691,0.0000599896395061494
465,0.0116591453552246,0.000067059649215577
466,0.0114307403564453,0.000054492077538399
467,0.0114727020263672,0.0000481629135006579
468,0.0113167762756348,0.0000481475680380793
469,0.0113229751586914,0.0000540016765887613
470,0.0110616683959961,0.0000616135608871959
471,0.010828971862793,0.0000651995263486374
472,0.0107874870300293,0.0000469012432998908
473,0.0106487274169922,0.0000412133255025581
474,0.0105443000793457,0.0000550896554080577
475,0.0104665756225586,0.0000766774314880924
476,0.0103425979614258,0.0000684672408281005
477,0.0102190971374512,0.0000711063177279709
478,0.0101175308227539,0.0000612415608589144
479,0.00995731353759766,0.0000538203208677638
480,0.00984811782836914,0.0000542065494913012
481,0.00975465774536133,0.0000816436566384296
482,0.00969457626342773,0.00006646535293058
483,0.00957822799682617,0.0000532159668487331
484,0.00941562652587891,0.0000673624260312868
485,0.00960636138916016,0.0000646268291363326
486,0.00886249542236328,0.0000621829295272232
487,0.00901222229003906,0.0000538414401280602
488,0.00900554656982422,0.0000406012210033569
489,0.0088810920715332,0.000070880524353264
490,0.00885868072509766,0.0000741615927235678
491,0.00876760482788086,0.000056520793872498
492,0.00870704650878906,0.0000677360568439659
493,0.00863456726074219,0.0000857259853486719
494,0.00838613510131836,0.0000821212713835232
495,0.00840139389038086,0.000071819021348315
496,0.00830411911010742,0.000063180473613937
497,0.00821685791015625,0.0000940300629760797
498,0.00827598571777344,0.000103810417209967
499,0.00803899765014648,0.0000831229886936757
500,0.00786781311035156,0.0000633978269407557
501,0.00797462463378906,0.0000817786152720367
502,0.00777578353881836,0.0000719471270805209
503,0.00780344009399414,0.0000816673253007366
504,0.00778722763061523,0.0000739558906564376
505,0.00762462615966797,0.0000506839993011368
506,0.00753307342529297,0.0000671866770913288
507,0.00748968124389648,0.0000599574140169105
508,0.0074610710144043,0.000063363746424723
509,0.00739431381225586,0.0000591181931831304
510,0.00733089447021484,0.0000636001390417906
511,0.00706386566162109,0.0000777317698964101
512,0.00713491439819336,0.0000749241528014696
513,0.0069737434387207,0.0000528052750092079
514,0.00695657730102539,0.0000542662893286709
515,0.00692033767700195,0.0000703330767345135
516,0.00680971145629883,0.0000823466157333955
517,0.00675153732299805,0.0000621774444920445
518,0.00661182403564453,0.0000586180090356037
519,0.00664329528808594,0.0000625002379524649
520,0.00660276412963867,0.0000632200479827494
521,0.00657558441162109,0.0000681209904663821
522,0.00652265548706055,0.0000735133832573004
523,0.00632858276367188,0.0000609596724450391
524,0.006317138671875,0.0000622669728962152
525,0.00637102127075195,0.0000654709747098347
526,0.00623416900634766,0.0000567956893920052
527,0.00617647171020508,0.0000687142033662194
528,0.00609588623046875,0.0000619301151086968
529,0.00613641738891602,0.0000684091001839127
530,0.00591421127319336,0.0000589236457122109
531,0.0059208869934082,0.0000463857423215292
532,0.00586843490600586,0.00005517626144772
533,0.00575351715087891,0.0000630706148049894
534,0.00578737258911133,0.0000689883017212174
535,0.0057063102722168,0.000071551000526057
536,0.00558328628540039,0.0000600748588302353
537,0.0055384635925293,0.0000600104820719483
538,0.00562524795532227,0.000054489991198159
539,0.00553083419799805,0.0000657551352536705
540,0.00551366806030273,0.0000702942722754302
541,0.00545072555541992,0.0000576933552050275
542,0.00527000427246094,0.0000659898524933098
543,0.00526857376098633,0.0000546119080493337
544,0.00533962249755859,0.0000559913228724888
545,0.00521564483642578,0.0000415614943468378
546,0.00503301620483398,0.0000390009364669153
547,0.00512838363647461,0.0000515381341971926
548,0.00508022308349609,0.0000611189178066567
549,0.00503635406494141,0.0000638837232832478
550,0.00496578216552734,0.0000511528714443355
551,0.00490665435791016,0.0000565197881554743
552,0.00486326217651367,0.0000683592259882257
553,0.00482749938964844,0.0000538382727671526
554,0.00477313995361328,0.0000560420608016636
555,0.00481510162353516,0.0000479417020788573
556,0.00473308563232422,0.0000513281480024434
557,0.00469875335693359,0.000040167693497949
558,0.00460147857666016,0.0000463759376834316
559,0.00459861755371094,0.000062652846167209
560,0.0045323371887207,0.0000676151055026691
561,0.00446176528930664,0.0000540458686819028
562,0.00440788269042969,0.0000468236122641276
563,0.00443315505981445,0.0000485508279365037
564,0.00432634353637695,0.0000527621985448788
565,0.00437450408935547,0.0000670308227641113
566,0.00429868698120117,0.000059242099619308
567,0.0042576789855957,0.0000400067512410564
568,0.00421714782714844,0.0000396563995617746
569,0.00425291061401367,0.0000481109552598169
570,0.00420761108398438,0.0000522718801823822
571,0.00410795211791992,0.0000528257240245204
572,0.00396633148193359,0.0000393773384027555
573,0.00413179397583008,0.0000364562199958327
574,0.00406074523925781,0.0000419697970409522
575,0.0040283203125,0.0000369079353199336
576,0.00396013259887695,0.0000443791705272786
577,0.003936767578125,0.0000474135374034382
578,0.00378847122192383,0.0000426609392965801
579,0.00388669967651367,0.0000566694431943725
580,0.00387239456176758,0.0000420239376685192
581,0.00385761260986328,0.0000379654918584431
582,0.00369930267333984,0.0000576006655522976
583,0.00368499755859375,0.0000510828149794454
584,0.00370025634765625,0.0000518865879017458
585,0.00372171401977539,0.0000554147559202291
586,0.00356864929199219,0.000048011606113975
587,0.00367307662963867,0.0000430786152928434
588,0.00352239608764648,0.0000539226720551574
589,0.00356626510620117,0.0000583516991163274
590,0.00354385375976562,0.0000355539582694621
591,0.00344038009643555,0.0000269729293551791
592,0.00348138809204102,0.0000379759710859059
593,0.00340843200683594,0.0000463894185265613
594,0.00342226028442383,0.000045093267562784
595,0.00332164764404297,0.0000493854607110416
596,0.00335693359375,0.0000440577923557102
597,0.00338459014892578,0.0000546712049486657
598,0.00334644317626953,0.0000466618721875193
599,0.00329113006591797,0.0000501144283825349
600,0.0032501220703125,0.0000559049627117749
601,0.00317287445068359,0.0000511373116351712
602,0.00321722030639648,0.0000464420788214147
603,0.00320196151733398,0.0000463955448876406
604,0.00315284729003906,0.0000435647571888638
605,0.00317955017089844,0.0000489542494495796
606,0.00310230255126953,0.000051108402278802
607,0.00309467315673828,0.0000545275331088197
608,0.0030360221862793,0.0000512816139583811
609,0.00303363800048828,0.0000482866788548625
610,0.00299596786499023,0.0000637019464823122
611,0.00301122665405273,0.0000504456754891899
612,0.00300121307373047,0.0000357842381039114
613,0.00295543670654297,0.0000418911688434551
614,0.0029149055480957,0.0000479630395335502
615,0.00288152694702148,0.0000346322990568494
616,0.00285816192626953,0.0000438638352358823
617,0.00288820266723633,0.0000480400125494239
618,0.00286674499511719,0.0000519577486861921
619,0.00281572341918945,0.0000622249654007361
620,0.00272893905639648,0.0000533098824737493
621,0.00275182723999023,0.000050005419663142
622,0.00277280807495117,0.0000525462865266889
623,0.00276374816894531,0.0000616836370917527
624,0.0027618408203125,0.0000560947795651154
625,0.0026702880859375,0.0000540826678419412
626,0.00260543823242187,0.0000495624000896946
627,0.00264310836791992,0.0000539753545931301
628,0.00266647338867187,0.0000423271883740811
629,0.00266742706298828,0.0000363453464821333
630,0.00257110595703125,0.0000415621781883613
631,0.00252628326416016,0.0000491859320000749
632,0.00253772735595703,0.0000618511284402506
633,0.00258350372314453,0.0000537706579552095
634,0.00248384475708008,0.0000539089661622041
635,0.00248193740844727,0.0000564865894482476
636,0.0024561882019043,0.000049720421219621
637,0.0023961067199707,0.0000632308366937667
638,0.00242376327514648,0.0000465887229464502
639,0.00240898132324219,0.0000512738541784443
640,0.0023651123046875,0.0000498414595598387
641,0.00237894058227539,0.0000480814085179403
642,0.00237035751342773,0.0000522664426148625
643,0.00237894058227539,0.0000637197906649872
644,0.00238800048828125,0.0000786766861291612
645,0.002288818359375,0.0000614065552978716
646,0.00232076644897461,0.0000476109426217472
647,0.00228261947631836,0.0000512505677892471
648,0.00222349166870117,0.0000713776011480948
649,0.00228166580200195,0.0000678618185906274
650,0.00224781036376953,0.0000492459909259374
651,0.0022125244140625,0.0000416673558348218
652,0.00218391418457031,0.0000376527782481906
653,0.00218439102172852,0.0000476348149370367
654,0.00211477279663086,0.0000528429381101991
655,0.00238370895385742,0.000050872066735045
656,0.00203609466552734,0.0000437301531819328
657,0.00179386138916016,0.0000464702214597918
658,0.00200414657592773,0.0000399790351500408
659,0.00213289260864258,0.0000516736176164162
660,0.00208091735839844,0.0000540668998402527
661,0.00203847885131836,0.0000486245325334491
662,0.00204706192016602,0.0000391841496889914
663,0.00206184387207031,0.0000428377881208106
664,0.00197219848632812,0.0000453847785699153
665,0.00202178955078125,0.0000576026392254998
666,0.00194406509399414,0.0000606089853112627
667,0.00202083587646484,0.0000640738564767488
668,0.00197553634643555,0.0000587119971262869
669,0.00191020965576172,0.0000521226856659695
670,0.00191402435302734,0.0000675848338459087
671,0.00187969207763672,0.0000545139792901146
672,0.00189638137817383,0.0000468733594465764
673,0.00188255310058594,0.0000621957260614884
674,0.0018162727355957,0.000062890103230437
675,0.00189924240112305,0.0000430944467141818
676,0.00187015533447266,0.0000411664043425858
677,0.00189113616943359,0.0000321432104994826
678,0.0018458366394043,0.0000398066218632514
679,0.00182819366455078,0.000043065417996016
680,0.00185108184814453,0.0000408294862192866
681,0.00176811218261719,0.0000431122501142158
682,0.00177383422851562,0.0000532095574743779
683,0.00181770324707031,0.000045075616066347
684,0.00174188613891602,0.0000452756818939092
685,0.00177097320556641,0.0000462519753676278
686,0.00177621841430664,0.0000583857844777533
687,0.00173616409301758,0.0000389695878639401
688,0.00171184539794922,0.0000319685443475062
689,0.00168275833129883,0.0000304681780455585
690,0.00176143646240234,0.0000439867740483908
691,0.00165700912475586,0.0000436507892278511
692,0.0017542839050293,0.0000580782960769369
693,0.00166511535644531,0.0000674703516816753
694,0.00165700912475586,0.0000522261870197032
695,0.00166702270507812,0.0000562122047925057
696,0.00164461135864258,0.0000573187222756839
697,0.00164413452148437,0.0000614731688289006
698,0.00160884857177734,0.0000503836620293322
699,0.00164270401000977,0.0000512294900306797
700,0.00162601470947266,0.000050624523531174
701,0.00157594680786133,0.0000598976562548048
702,0.001617431640625,0.000049920090974054
703,0.00157690048217773,0.0000424123801483749
704,0.00156784057617187,0.0000418938826172308
705,0.00151824951171875,0.0000482053831333165
706,0.00151729583740234,0.0000489739850881357
707,0.00158500671386719,0.0000372131612509204
708,0.00145626068115234,0.0000493336378340819
709,0.00158548355102539,0.0000489728243883811
710,0.00151681900024414,0.0000493440067635762
711,0.00151920318603516,0.0000454848664157428
712,0.00151348114013672,0.0000593743644253106
713,0.00153207778930664,0.0000600436257884872
714,0.00146770477294922,0.0000566001890470113
715,0.00148534774780273,0.0000558052286592236
716,0.00148868560791016,0.0000596885091162445
717,0.00141525268554687,0.0000490273475720248
718,0.00148487091064453,0.0000520157000427442
719,0.00146055221557617,0.0000467701661810348
720,0.00147914886474609,0.0000533983106183693
721,0.0014185905456543,0.000054521277918874
722,0.00143146514892578,0.000057789830808804
723,0.00141096115112305,0.0000515204841507171
724,0.0014185905456543,0.0000399157135380239
725,0.00133132934570312,0.0000502594055609155
726,0.00142145156860352,0.0000516648164892301
727,0.00139236450195312,0.0000380716474234008
728,0.00141572952270508,0.0000423312170409511
729,0.00136041641235352,0.0000452731708330995
730,0.00137472152709961,0.0000445453708660405
731,0.00134181976318359,0.0000554936848677679
732,0.0014190673828125,0.0000519424299856042
733,0.00139045715332031,0.0000585287262310375
734,0.00131702423095703,0.0000539785139103264
735,0.00135231018066406,0.0000545817147265909
736,0.00126314163208008,0.0000502401748712653
737,0.00139093399047852,0.0000684473124564274
738,0.00136518478393555,0.0000552267189175268
739,0.00136089324951172,0.0000524835058962055
740,0.00136232376098633,0.0000502955845591209
741,0.00132322311401367,0.0000461436971176795
742,0.00136232376098633,0.0000526727024915023
743,0.00135087966918945,0.000055179352006528
744,0.0013880729675293,0.000065543864883179
745,0.00117588043212891,0.0000617867624228027
746,0.0013270378112793,0.000050540240105576
747,0.00128936767578125,0.0000510627811928146
748,0.00130271911621094,0.0000557420394475255
749,0.00130271911621094,0.0000525257287224859
750,0.0013432502746582,0.0000577573621217709
751,0.00116682052612305,0.0000537124834732248
752,0.00120210647583008,0.0000546982313088803
753,0.00135231018066406,0.0000534653331390754
754,0.00129270553588867,0.0000744400688085859
755,0.0013279914855957,0.0000536033687054846
756,0.00124359130859375,0.0000512472402984498
757,0.00125694274902344,0.0000469496975132366
758,0.00129890441894531,0.0000494314798802412
759,0.00123071670532227,0.0000399071681057834
760,0.00119304656982422,0.0000554414198183933
761,0.00118303298950195,0.0000479452589807488
762,0.00122308731079102,0.0000509691860713574
763,0.00120830535888672,0.00005390369373697
764,0.0011906623840332,0.0000592680007417366
765,0.00121831893920898,0.0000511750915363632
766,0.00119829177856445,0.0000695479704786838
767,0.00122165679931641,0.000061172836704249
768,0.00121927261352539,0.0000756715180392356
769,0.00113821029663086,0.0000556450780589437
770,0.0011448860168457,0.0000611189178066567
771,0.00118541717529297,0.0000660363515143421
772,0.00120401382446289,0.0000588232317447376
773,0.00117921829223633,0.0000617517927744486
774,0.00114345550537109,0.0000470863112724596
775,0.00110721588134766,0.0000616449206154306
776,0.0011591911315918,0.0000617112768462839
777,0.00109004974365234,0.0000464848978118136
778,0.00115776062011719,0.0000488705748570212
779,0.00108814239501953,0.0000427979612359259
780,0.00112819671630859,0.0000467665199056809
781,0.00110387802124023,0.0000422034558606823
782,0.00106382369995117,0.0000426782575857646
783,0.00114536285400391,0.0000457813339717806
784,0.00106239318847656,0.0000556236216781484
785,0.0011439323425293,0.0000615489464293231
786,0.00119638442993164,0.0000496185666630881
787,0.00113010406494141,0.0000546119080493337
788,0.00118684768676758,0.0000654675017249393
789,0.00109720230102539,0.0000550937825923164
790,0.00110292434692383,0.0000761522527058762
791,0.00106334686279297,0.0000636323063568584
792,0.00113582611083984,0.0000677528385643245
793,0.00108718872070312,0.0000674737215766244
794,0.00110435485839844,0.0000710007166037914
795,0.00107002258300781,0.0000689899496162534
796,0.00106668472290039,0.0000582424919104392
797,0.000972747802734375,0.0000660053558066902
798,0.00102949142456055,0.0000943896715672197
799,0.00105047225952148,0.000076283513786523
800,0.000987052917480469,0.0000683841676328736
801,0.00101709365844727,0.0000430284440308429
802,0.00110292434692383,0.0000432596698523639
803,0.00108909606933594,0.000067311776314084
804,0.00110006332397461,0.0000395501858429479
805,0.00104856491088867,0.0000511939710317183
806,0.00102806091308594,0.0000618988998682037
807,0.00106906890869141,0.0000682876761185007
808,0.00100183486938477,0.0000628340393448987
809,0.00109243392944336,0.0000679973800240724
810,0.00111865997314453,0.0000547262830177444
811,0.00103044509887695,0.0000482772602798756
812,0.0010380744934082,0.0000455198451701472
813,0.000995635986328125,0.0000535832164642942
814,0.000987052917480469,0.0000382169439412625
815,0.000999927520751953,0.0000592660825282644
816,0.000994205474853516,0.0000554547469597483
817,0.0009918212890625,0.000059125884855448
818,0.000952243804931641,0.000070030156401618
819,0.000996112823486328,0.0000646637602633889
820,0.000982761383056641,0.0000660707741352757
821,0.00102949142456055,0.0000670681252257245
822,0.00105714797973633,0.0000503339962513033
823,0.00102567672729492,0.000054495206898993
824,0.00107097625732422,0.000057930318165054
825,0.001007080078125,0.0000576884286544959
826,0.00103759765625,0.0000631984650354406
827,0.000979900360107422,0.000059952673513419
828,0.00107145309448242,0.0000809064938205532
829,0.000967979431152344,0.0000655195771687228
830,0.00100326538085937,0.0000759145123002457
831,0.00107717514038086,0.0000611969918233362
832,0.00104475021362305,0.0000631372732850473
833,0.00101995468139648,0.0000553048884101791
834,0.001068115234375,0.0000494303299231653
835,0.00100326538085937,0.0000618639936074328
836,0.00109243392944336,0.0000608439355788971
837,0.0010075569152832,0.000046787178375381
838,0.00100183486938477,0.0000616449206154306
839,0.00101566314697266,0.0000487564536934239
840,0.0010986328125,0.0000488763902210906
841,0.00108194351196289,0.0000545004221006834
842,0.00101089477539062,0.0000520593941997562
843,0.00105094909667969,0.0000683958039544025
844,0.00109052658081055,0.0000667231336582634
845,0.000935077667236328,0.0000561403616140506
846,0.00099945068359375,0.0000609568749534726
847,0.0010828971862793,0.0000662769344183012
848,0.000919818878173828,0.0000582005097049463
849,0.00101423263549805,0.0000748254594647714
850,0.00106239318847656,0.0000635232289646161
851,0.00104999542236328,0.0000665234834111355
852,0.00100088119506836,0.0000684340236512822
853,0.000995159149169922,0.0000483008032737063
854,0.000975131988525391,0.0000588763566210563
855,0.000960826873779297,0.0000719613469733551
856,0.000926971435546875,0.000044505794831951
857,0.000932216644287109,0.0000537135417534459
858,0.0010223388671875,0.0000552791869614534
859,0.00101280212402344,0.0000726124518237272
860,0.00104951858520508,0.0000710599365623366
861,0.000970840454101563,0.0000503317375514771
862,0.000956058502197266,0.0000572651450192874
863,0.000942230224609375,0.0000635160698043359
864,0.00102329254150391,0.0000621701303590358
865,0.0010066032409668,0.0000785870458306525
866,0.000945091247558594,0.0000769778237918303
867,0.000870704650878906,0.0000758081106929047
868,0.000896453857421875,0.0000529450314732354
869,0.000940322875976563,0.0000601958518396498
870,0.000965595245361328,0.0000755136041150256
871,0.000983715057373047,0.0000679973800240724
872,0.000964164733886719,0.0000732748386004124
873,0.000917911529541016,0.0000792253135721811
874,0.000924110412597656,0.0000587042512247226
875,0.000844478607177734,0.0000561818597280559
876,0.000963211059570313,0.000065208244144923
877,0.000890731811523438,0.0000514033995210998
878,0.000916481018066406,0.0000648358273764936
879,0.000890254974365234,0.0000572899555334358
880,0.000898838043212891,0.0000533610395098858
881,0.000961780548095703,0.0000713680439945207
882,0.000905036926269531,0.0000672762988233819
883,0.000877857208251953,0.0000721018149239952
884,0.000851631164550781,0.0000434301545546333
885,0.000945568084716797,0.000047363157431942
886,0.000946044921875,0.0000767767056851607
887,0.000955104827880859,0.0000764859287416903
888,0.000863552093505859,0.0000717128844153896
889,0.000891685485839844,0.0000464567640640968
890,0.000920295715332031,0.0000476706009949254
891,0.0009002685546875,0.0000569915165064641
892,0.000860691070556641,0.0000657603218761498
893,0.000946044921875,0.0000837728386325506
894,0.000928878784179688,0.0000761268693675045
895,0.000842094421386719,0.0000803028318880816
896,0.000891208648681641,0.0000814359134022131
897,0.000870227813720703,0.0000711510708545104
898,0.000822544097900391,0.0000637233589019026
899,0.000849246978759766,0.0000725184510268009
900,0.000858783721923828,0.0000578674848692269
901,0.0009002685546875,0.0000540868718660326
902,0.000884056091308594,0.000073593756182558
903,0.000955104827880859,0.0000921813918242965
904,0.00100088119506836,0.0000961817309008491
905,0.000918388366699219,0.0000658605162933797
906,0.000878810882568359,0.0000613194787225457
907,0.000849723815917969,0.0000524650904403658
908,0.000957489013671875,0.0000694841897438661
909,0.000946998596191406,0.000120627549646277
910,0.000907421112060547,0.0000651594094628817
911,0.000802040100097656,0.0000604850596253455
912,0.000821590423583984,0.0000643800802240466
913,0.000933647155761719,0.0000808783856714904
914,0.000928401947021484,0.0000952767895050815
915,0.00103187561035156,0.0000862403207539729
916,0.000950336456298828,0.0000816116234047491
917,0.000908851623535156,0.0000636144376343817
918,0.000934600830078125,0.0000537960234686678
919,0.00099945068359375,0.0000565710569272264
920,0.00099945068359375,0.0000629551470227096
921,0.000971794128417969,0.0000856158428618145
922,0.00100088119506836,0.0000923021755911415
923,0.000991344451904297,0.0000535821556100694
924,0.000941753387451172,0.0000567696615784555
925,0.000996589660644531,0.0000700642394722114
926,0.000997543334960938,0.0000668491003466859
927,0.00109386444091797,0.0000940034601619843
928,0.00108051300048828,0.0000896606026578615
929,0.00102090835571289,0.0000846006415791397
930,0.00107717514038086,0.0000800617966599561
931,0.0011286735534668,0.0000836777887809802
932,0.00103759765625,0.0000981474051303852
933,0.00114583969116211,0.0000839991660455887
934,0.00107908248901367,0.0000874707046882827
935,0.00117397308349609,0.0000777931728726697
936,0.00121116638183594,0.0000992188019076534
937,0.00112295150756836,0.0000994316959305363
938,0.00117063522338867,0.0000712037794996389
939,0.00114870071411133,0.0000868131778374768
940,0.00126886367797852,0.0000733198186611528
941,0.00133514404296875,0.000118061259742648
942,0.00130939483642578,0.000101406123314106
943,0.00122642517089844,0.0000749317392124003
944,0.001312255859375,0.0000958834041577146
945,0.00133752822875977,0.000112181452069547
946,0.00136089324951172,0.0000841803300591282
947,0.00121784210205078,0.0000927567780745531
948,0.00143766403198242,0.000116680016244595
949,0.00139856338500977,0.000096457922428057
950,0.00134372711181641,0.0000725764325750303
951,0.00148248672485352,0.000111451441845603
952,0.00171041488647461,0.00012715379394032
953,0.00139522552490234,0.000118405493233336
954,0.00170183181762695,0.000119768737308041
955,0.00160837173461914,0.000115185540366243
956,0.00179624557495117,0.000104182099090766
957,0.00177288055419922,0.000165832419319951
958,0.00185918807983398,0.000134920481973588
959,0.00171089172363281,0.00010045771852313
960,0.00171995162963867,0.000128693039902261
961,0.00175380706787109,0.000130500146707573
962,0.00190210342407227,0.000125283915820017
963,0.00186252593994141,0.000129397826332746
964,0.00187110900878906,0.000156262963472473
965,0.00183296203613281,0.000144565828438259
966,0.00179004669189453,0.000157855427018442
967,0.00173759460449219,0.00013485642756892
968,0.00168895721435547,0.000127920399758203
969,0.00170087814331055,0.000170449108983985
970,0.00166416168212891,0.000154297902799455
971,0.00156593322753906,0.000170984523242575
972,0.00177812576293945,0.00014784105205594
973,0.00175285339355469,0.000121135409845364
974,0.00160932540893555,0.000144578410320653
975,0.00149965286254883,0.000151087416814898
976,0.0013737678527832,0.000128813125647759
977,0.00157356262207031,0.000134674211869815
978,0.00150775909423828,0.00014730178240672
979,0.00154304504394531,0.000115331522201994
980,0.00146198272705078,0.000175144047290787
981,0.00153017044067383,0.000181629270280722
982,0.00127983093261719,0.000146577601767739
983,0.00144004821777344,0.00017726032538854
984,0.00130176544189453,0.000141523469157746
985,0.00153064727783203,0.000174545849334751
986,0.00125503540039062,0.00016579128106442
987,0.001068115234375,0.000170547794056094
988,0.00121593475341797,0.000204251124771259
989,0.00115537643432617,0.000170457112604725
990,0.00115585327148437,0.000212680063705968
991,0.00103664398193359,0.000194053391189658
992,0.000836849212646484,0.000131524101318812
993,0.00142955780029297,0.000139425749973578
994,0.000983715057373047,0.000232293608728669
995,0.00121212005615234,0.000179625260027916
996,0.00110626220703125,0.000207594549419797
997,0.00104761123657227,0.000221921468319323
998,0.000951290130615234,0.000141121243917143
999,0.00110387802124023,0.000202740483258588
1000,0.000813007354736328,0.000210228412775138
1001,0.00108194351196289,0.000230749773175607
1002,0.00111627578735352,0.000158806103741202
1003,0.000558376312255859,0.000168011865827763
1004,0.0007476806640625,0.000204735907488918
1005,0.000566959381103516,0.000241394543315692
1006,0.000873088836669922,0.000205206249154568
1007,0.000371932983398437,0.000207721562774574
1008,0.000594615936279297,0.000189495830601622
1009,0.00066375732421875,0.000230903439574495
1010,0.000796794891357422,0.000209851693964679
1011,0.000530242919921875,0.000225825567458186
1012,0.000620841979980469,0.000323221034902205
1013,0.000722408294677734,0.00026035134171679
1014,0.000762462615966797,0.000203979321541935
1015,0.000780582427978516,0.000246188397220803
1016,0.000380039215087891,0.000342723535440113
1017,0.0005950927734375,0.000273988490058136
1018,0.000189304351806641,0.000243102788386322
1019,0.000524997711181641,0.00022261299896952
1020,0.000645160675048828,0.000235381813746524
1021,0.000621795654296875,0.000253146196271879
1022,0.000266551971435547,0.000277642095049483
1023,0.000565052032470703,0.000317090615235457
1024,0.000777244567871094,0.00039134592347557
1025,0.000776290893554688,0.000361541945752917
1026,0.000818729400634766,0.000344412451842311
1027,0.000683784484863281,0.000318812625050099
1028,0.000397682189941406,0.000316906994161653
1029,0.000403404235839844,0.000435092938584188
1030,0.000509738922119141,0.000262619120067151
1031,0.000861644744873047,0.00034394737220832
1032,0.000372886657714844,0.000413300927785293
1033,0.000707149505615234,0.00032346293526764
1034,0.000698089599609375,0.000364038860542026
1035,0.00054931640625,0.0004316005871617
1036,0.000616073608398438,0.000366498913389167
1037,0.000848770141601563,0.00043095106230526
1038,0.000782966613769531,0.000425411440534437
1039,0.000639915466308594,0.000368498571168879
1040,0.00125980377197266,0.000375122673612656
1041,0.000947475433349609,0.000334140044875864
1042,0.00123929977416992,0.000278897158240144
1043,0.00114297866821289,0.000393644597713806
1044,0.000173091888427734,0.00035214222356674
1045,0.000573158264160156,0.000425556794114517
1046,0.000169754028320312,0.000562095350842098
1047,0.00112771987915039,0.000634811931534973
1048,-0.000840663909912109,0.0004870204741741
1049,0.000347614288330078,0.000432089194935428
1050,0.00129222869873047,0.00054364455141952
1051,0.00108480453491211,0.000467444417135923
1052,0.000733852386474609,0.000484105974713025
1053,0.000972747802734375,0.000660130027667787
1054,-0.000229358673095703,0.000604012472297042
1055,0.000706195831298828,0.000504637014592093
1056,0.0000524520874023438,0.000746258531468552
1057,0.00130414962768555,0.000577167604260473
1058,0.000932216644287109,0.000728677077210921
1059,0.000602245330810547,0.000363678920905001
1060,-0.000645637512207031,0.000361763250768119
1061,0.000285625457763672,0.000432375363473486
1062,0.000544071197509766,0.000599101818648273
1063,0.000568866729736328,0.000956690786097243
1064,0.000608921051025391,0.00107007528029094
1065,0.0000414848327636719,0.00105103044143154
1066,-0.000273227691650391,0.00102611811126386
1067,0.000720500946044922,0.000600896557288746
1068,0.000138759613037109,0.000645304274102493
1069,0.00172901153564453,0.000914827715263281
1070,0.000196456909179687,0.00101025399106202
1071,0.00208806991577148,0.00102003036171882
1072,0.00203037261962891,0.00101031160627727
1073,-0.000841617584228516,0.00120653031117536
1074,-0.0000619888305664063,0.00121993994697917
1075,-0.000921249389648438,0.000884450538479167
1076,0.000616073608398438,0.00116097226328291
1077,0.00152587890625,0.0012150394659221
1078,0.000884056091308594,0.00138140506564408
1079,0.00243520736694336,0.00106402020881511
1080,0.000381946563720703,0.00110726146949145
1081,0.00141763687133789,0.00137390546827751
1082,0.00102472305297852,0.000999275949360603
1083,-0.000110149383544922,0.00183099110810841
1084,0.0023651123046875,0.00147848926203214
1085,0.00269699096679687,0.00131630826268439
1086,0.00116252899169922,0.001185211154531
1087,-0.00125598907470703,0.00191927424128181
1088,0.0000452995300292969,0.00143971344549135
1089,-0.0010223388671875,0.00173057810263499
1090,0.00139808654785156,0.00184514663017027
1091,0.00134563446044922,0.00132288069203666
1092,0.00364542007446289,0.00181557149061381
1093,0.00244474411010742,0.00275897303955221
1094,-0.000938892364501953,0.00228347153795015
1095,-0.0015406608581543,0.00138283696664836
1096,-0.00505685806274414,0.00133531841774247
1097,-0.000776290893554688,0.0015008397855965
1098,0.00337076187133789,0.00117636258464675
1099,0.00171470642089844,0.00169568335304781
1100,-0.000840187072753906,0.00286995067029022
