Wavelength (nm),Absorbance (AU),Std.Dev.
190,0.623360633850098,0.000108465518552136
191,0.603564739227295,0.0000704122361031069
192,0.587842464447022,0.0000617389042268353
193,0.574013710021973,0.0000814010052134903
194,0.563109397888184,0.0000497569921223503
195,0.553734302520752,0.0000541792778649931
196,0.546023368835449,0.0000521946136332389
197,0.539452075958252,0.0000448531189586824
198,0.533427238464356,0.0000811169944811301
199,0.52796745300293,0.0000636412388367032
200,0.522841453552246,0.0000447084106273244
201,0.517681121826172,0.0000537770004552362
202,0.512512683868408,0.0000493186566428362
203,0.507199764251709,0.0000519807182725446
204,0.501688957214356,0.0000578203150880343
205,0.495771884918213,0.0000672255842154583
206,0.489500522613525,0.000060499154873828
207,0.483135223388672,0.0000488263554550438
208,0.476261138916016,0.0000433135105490436
209,0.469287395477295,0.0000421036680182755
210,0.462232112884522,0.0000423305456230988
211,0.45484733581543,0.0000523772572884484
212,0.447651863098145,0.0000502695835359324
213,0.440335750579834,0.0000500326941088751
214,0.433163642883301,0.0000564584055392877
215,0.425970077514648,0.0000692251947172528
216,0.419067859649658,0.0000574405728066559
217,0.41228723526001,0.0000607232977913988
218,0.405679225921631,0.0000508430065605301
219,0.399189472198486,0.0000447706671367516
220,0.393007278442383,0.0000465362285940649
221,0.386913299560547,0.0000417048549967867
222,0.381042957305908,0.0000412436578083186
223,0.375226497650146,0.0000423533678588907
224,0.369726657867432,0.0000385707915192969
225,0.364276885986328,0.0000447744759476086
226,0.358973026275635,0.0000517538587616544
227,0.35379695892334,0.0000384586239842018
228,0.348625659942627,0.00003855089086021
229,0.343660354614258,0.0000388044091002917
230,0.338768005371094,0.0000460499791967521
231,0.333992958068848,0.0000388161262921041
232,0.329191207885742,0.0000510382847744258
233,0.324594974517822,0.0000489356674601269
234,0.320122718811035,0.0000377778733829514
235,0.31558084487915,0.0000410405573093812
236,0.311220169067383,0.0000484676296907715
237,0.306997776031494,0.0000416925862565937
238,0.302939891815186,0.000030043106137371
239,0.298956394195557,0.0000309586318401199
240,0.295236110687256,0.000036981788190825
241,0.29156494140625,0.0000427820201007287
242,0.288024425506592,0.0000425208022467324
243,0.28464412689209,0.0000479084915934713
244,0.281428813934326,0.0000519030182807456
245,0.27838659286499,0.0000483748888129135
246,0.275529861450195,0.0000460018129789486
247,0.272839069366455,0.0000455784991600984
248,0.27028226852417,0.0000452920003957524
249,0.267923831939697,0.0000471056227923005
250,0.265683650970459,0.0000465972629415628
251,0.263437747955322,0.0000382437075515514
252,0.26136302947998,0.000024041886462716
253,0.259319305419922,0.000032056439698845
254,0.257259845733643,0.0000413407091311827
255,0.255361080169678,0.0000461707904861723
256,0.253294944763184,0.0000406271135260836
257,0.251386165618896,0.0000557960604717639
258,0.249257564544678,0.0000456694506737356
259,0.247200965881348,0.0000507277199549593
260,0.245083808898926,0.0000617830823392697
261,0.242873191833496,0.0000627199486514726
262,0.240676403045654,0.0000447630485427823
263,0.238234996795654,0.0000561960227972679
264,0.235798358917236,0.0000597817650343039
265,0.233368873596191,0.0000551401921290351
266,0.230822563171387,0.0000502322542121222
267,0.228139400482178,0.0000398173303405288
268,0.225505352020264,0.0000469218424544137
269,0.222765922546387,0.000051511656859613
270,0.220000743865967,0.0000641376998037734
271,0.217307567596436,0.0000819300045553221
272,0.214569568634033,0.0000710487365722656
273,0.211664199829102,0.0000654119088889075
274,0.208712100982666,0.0000518482301025342
275,0.205925941467285,0.0000463722604096929
276,0.203124046325684,0.0000447198519939517
277,0.200252056121826,0.0000332839509400295
278,0.197539329528809,0.0000390198792179927
279,0.194733619689941,0.0000470053581107474
280,0.191902160644531,0.0000459313253412094
281,0.189277172088623,0.0000378980562081492
282,0.186538696289062,0.000035403352749151
283,0.18388032913208,0.0000442162023278643
284,0.181121826171875,0.0000538097581292821
285,0.178486347198486,0.000044977145200851
286,0.175969123840332,0.0000429371937125913
287,0.173354148864746,0.0000417389159088499
288,0.170657157897949,0.0000392566163689048
289,0.168120384216309,0.0000399100167864999
290,0.165674209594727,0.0000293012456812615
291,0.163216590881348,0.0000413049436954984
292,0.160848140716553,0.0000346437865399714
293,0.158410549163818,0.0000276416499981016
294,0.156057357788086,0.0000319712113932996
295,0.153886318206787,0.000038444580031519
296,0.151642799377441,0.0000512738541784443
297,0.149435520172119,0.000046152319460155
298,0.147269248962402,0.0000468333231808628
299,0.145089626312256,0.0000517472682921035
300,0.143076419830322,0.0000391551254639141
301,0.141002655029297,0.0000424525687677662
302,0.138980388641357,0.0000381044806809071
303,0.136937141418457,0.0000438780878892366
304,0.135056495666504,0.0000476348149370367
305,0.13324499130249,0.0000573415270165051
306,0.131304740905762,0.0000473487533085114
307,0.129533767700195,0.0000528386351145395
308,0.127687931060791,0.0000513978700739359
309,0.125933647155762,0.0000515623931461459
310,0.124129772186279,0.0000645264809571734
311,0.122375965118408,0.000044912643672964
312,0.120770931243896,0.0000363680171311728
313,0.119124412536621,0.0000348539912273233
314,0.117410659790039,0.0000518964467533673
315,0.115822315216064,0.0000471876085812321
316,0.114220142364502,0.0000505604809412278
317,0.112557888031006,0.0000633727167585059
318,0.110939502716064,0.0000524650904403658
319,0.109479904174805,0.0000511606495743043
320,0.107934951782227,0.0000623527262948768
321,0.106468677520752,0.0000507030616570529
322,0.104947566986084,0.0000523034069262725
323,0.103331565856934,0.0000662529154409947
324,0.101846218109131,0.0000494786051086455
325,0.100367546081543,0.0000570622880647526
326,0.0989518165588379,0.0000427494551588085
327,0.0974326133728027,0.000054052178888624
328,0.0959911346435547,0.0000498414595598387
329,0.094658374786377,0.0000697487430695593
330,0.0932626724243164,0.0000698692551253138
331,0.0918569564819336,0.0000637643792746066
332,0.0904293060302734,0.0000612155661983119
333,0.0890631675720215,0.0000563354396613414
334,0.0876545906066895,0.0000640791791834862
335,0.0863485336303711,0.0000539226720551574
336,0.084993839263916,0.0000481428453732285
337,0.0835928916931152,0.0000681593642624116
338,0.082341194152832,0.0000595158869789604
339,0.0811481475830078,0.0000449050491667508
340,0.0798168182373047,0.0000400202469985147
341,0.0786151885986328,0.0000456706953272937
342,0.0772857666015625,0.0000561484612154076
343,0.0760321617126465,0.0000351746194709246
344,0.0748600959777832,0.0000314567995118535
345,0.0737090110778809,0.0000461190529709112
346,0.072537899017334,0.0000510483074572986
347,0.0713086128234863,0.0000575750016438287
348,0.0701661109924316,0.000060086212274742
349,0.0691366195678711,0.0000398865090861095
350,0.0679640769958496,0.0000401145901702936
351,0.066920280456543,0.0000567606491699388
352,0.0659170150756836,0.0000703104434027176
353,0.0648288726806641,0.0000754126671732682
354,0.0639100074768066,0.0000610314308460078
355,0.0628910064697266,0.000049102652213501
356,0.0618367195129395,0.0000429894549163233
357,0.0608787536621094,0.0000464090200352907
358,0.0598292350769043,0.0000378041960237013
359,0.0586676597595215,0.0000514641842294278
360,0.0576739311218262,0.0000553788419378585
361,0.056675910949707,0.0000554670460942565
362,0.0557365417480469,0.0000625602355766373
363,0.0547604560852051,0.0000888914504831775
364,0.0539155006408691,0.0000592708779455447
365,0.0529022216796875,0.0000544294525435227
366,0.0520768165588379,0.0000652047571662758
367,0.0510387420654297,0.0000607261060432501
368,0.0502681732177734,0.0000676588073180321
369,0.0494575500488281,0.0000593101857422673
370,0.048607349395752,0.00006357689697016
371,0.0478219985961914,0.0000593753217906843
372,0.0469484329223633,0.000056727591422059
373,0.0461740493774414,0.0000563394755849531
374,0.045405387878418,0.0000544639052018161
375,0.0445904731750488,0.0000600805358206718
376,0.043940544128418,0.0000655022232875632
377,0.0432238578796387,0.0000407046922719584
378,0.0425019264221191,0.0000435686714215366
379,0.0418262481689453,0.0000690838146569328
380,0.0411472320556641,0.0000667163178725918
381,0.0403351783752441,0.0000613546947725938
382,0.0398201942443848,0.0000830956303054503
383,0.0390830039978027,0.0000950402369034181
384,0.0384726524353027,0.0000601731841819572
385,0.0378460884094238,0.000057765234994477
386,0.0371780395507812,0.0000667895511178266
387,0.0365853309631348,0.0000662580630976934
388,0.0358409881591797,0.0000577888471772233
389,0.0353455543518066,0.000070798677072005
390,0.034675121307373,0.0000790126509278408
391,0.0341582298278809,0.0000652518156555813
392,0.0333437919616699,0.0000767989136706857
393,0.0329060554504395,0.0000867555381778124
394,0.0323653221130371,0.0000666293554901224
395,0.0318789482116699,0.0000457477977133023
396,0.0312504768371582,0.0000666344740660226
397,0.0307478904724121,0.0000739343663753923
398,0.0302362442016602,0.0000823700824039047
399,0.0298008918762207,0.0000952887210279896
400,0.029322624206543,0.000081780005438293
401,0.0288939476013184,0.0000733492734002032
402,0.0284485816955566,0.0000719408062259442
403,0.0278434753417969,0.000102265730211478
404,0.0274524688720703,0.0000753794942230735
405,0.0269131660461426,0.0000613602533539789
406,0.0265789031982422,0.0000769497579976224
407,0.0261688232421875,0.0000800575365808481
408,0.0257506370544434,0.0000851364670736304
409,0.0252656936645508,0.000061111476983911
410,0.0248966217041016,0.0000809626808434166
411,0.0245070457458496,0.0000958288474510742
412,0.024177074432373,0.0000688431324892958
413,0.0236997604370117,0.000050710908779699
414,0.0233364105224609,0.0000511428692533106
415,0.0229673385620117,0.00006144172143897
416,0.0225515365600586,0.0000705203306096502
417,0.0221724510192871,0.0000558021727641054
418,0.0218396186828613,0.0000692613153535313
419,0.0217328071594238,0.0000719028694297259
420,0.0213103294372559,0.0000707183426797736
421,0.0209403038024902,0.0000645106222388025
422,0.0206313133239746,0.0000595588508165652
423,0.0202369689941406,0.0000552226016685617
424,0.0199971199035645,0.0000653632263706308
425,0.0197525024414062,0.0000498813605505633
426,0.0194549560546875,0.0000685900045093738
427,0.0191998481750488,0.0000699017902866233
428,0.0188117027282715,0.0000729436178088739
429,0.0185656547546387,0.0000621829295272232
430,0.0182623863220215,0.0000794116420206637
431,0.0180149078369141,0.0000622395799192632
432,0.0178823471069336,0.0000600739126130052
433,0.0176010131835937,0.0000689388465534088
434,0.0172019004821777,0.0000705074325152379
435,0.0170798301696777,0.0000611616849701842
436,0.016878604888916,0.0000543803459240071
437,0.0165791511535645,0.0000647463393107817
438,0.0163865089416504,0.0000687092397223825
439,0.016143798828125,0.0000576894139982596
440,0.0159344673156738,0.0000508999935642227
441,0.0157818794250488,0.0000647656511167513
442,0.0153751373291016,0.0000635500686327142
443,0.0153241157531738,0.0000589978805595821
444,0.015141487121582,0.0000570652764796419
445,0.0148749351501465,0.0000612860974826
446,0.0146856307983398,0.0000575275920413522
447,0.0144081115722656,0.0000739405168093415
448,0.014312744140625,0.0000613139164446245
449,0.0142269134521484,0.0000506896066205514
450,0.0140509605407715,0.0000642475034845436
451,0.0137763023376465,0.0000606202387203607
452,0.0136637687683105,0.0000717873551116132
453,0.0134663581848145,0.0000687505924710028
454,0.0133428573608398,0.0000516714174751589
455,0.0131893157958984,0.0000559618737956241
456,0.0131196975708008,0.0000660070781722931
457,0.012814998626709,0.0000571080932418515
458,0.0125722885131836,0.0000602807796407446
459,0.0126042366027832,0.0000712245328016545
460,0.0123753547668457,0.0000615452521256417
461,0.0122323036193848,0.0000521673798592573
462,0.0121474266052246,0.0000585316397749192
463,0.0120444297790527,0.0000634354735774418
464,0.0118012428283691,0.0000599896395061494
465,0.0116591453552246,0.000067059649215577
466,0.0114307403564453,0.000054492077538399
467,0.0114727020263672,0.0000481629135006579
468,0.0113167762756348,0.0000481475680380793
469,0.0113229751586914,0.0000540016765887613
470,0.0110616683959961,0.0000616135608871959
471,0.010828971862793,0.0000651995263486374
472,0.0107874870300293,0.0000469012432998908
473,0.0106487274169922,0.0000412133255025581
474,0.0105443000793457,0.0000550896554080577
475,0.0104665756225586,0.0000766774314880924
476,0.0103425979614258,0.0000684672408281005
477,0.0102190971374512,0.0000711063177279709
478,0.0101175308227539,0.0000612415608589144
479,0.00995731353759766,0.0000538203208677638
480,0.00984811782836914,0.0000542065494913012
481,0.00975465774536133,0.0000816436566384296
482,0.00969457626342773,0.00006646535293058
483,0.00957822799682617,0.0000532159668487331
484,0.00941562652587891,0.0000673624260312868
485,0.00960636138916016,0.0000646268291363326
486,0.00886249542236328,0.0000621829295272232
487,0.00901222229003906,0.0000538414401280602
488,0.00900554656982422,0.0000406012210033569
489,0.0088810920715332,0.000070880524353264
490,0.00885868072509766,0.0000741615927235678
491,0.00876760482788086,0.000056520793872498
492,0.00870704650878906,0.0000677360568439659
493,0.00863456726074219,0.0000857259853486719
494,0.00838613510131836,0.0000821212713835232
495,0.00840139389038086,0.000071819021348315
496,0.00830411911010742,0.000063180473613937
497,0.00821685791015625,0.0000940300629760797
498,0.00827598571777344,0.000103810417209967
499,0.00803899765014648,0.0000831229886936757
500,0.00786781311035156,0.0000633978269407557
501,0.00797462463378906,0.0000817786152720367
502,0.00777578353881836,0.0000719471270805209
503,0.00780344009399414,0.0000816673253007366
504,0.00778722763061523,0.0000739558906564376
505,0.00762462615966797,0.0000506839993011368
506,0.00753307342529297,0.0000671866770913288
507,0.00748968124389648,0.0000599574140169105
508,0.0074610710144043,0.000063363746424723
509,0.00739431381225586,0.0000591181931831304
510,0.00733089447021484,0.0000636001390417906
511,0.00706386566162109,0.0000777317698964101
512,0.00713491439819336,0.0000749241528014696
513,0.0069737434387207,0.0000528052750092079
514,0.00695657730102539,0.0000542662893286709
515,0.00692033767700195,0.0000703330767345135
516,0.00680971145629883,0.0000823466157333955
517,0.00675153732299805,0.0000621774444920445
518,0.00661182403564453,0.0000586180090356037
519,0.00664329528808594,0.0000625002379524649
520,0.00660276412963867,0.0000632200479827494
521,0.00657558441162109,0.0000681209904663821
522,0.00652265548706055,0.0000735133832573004
523,0.00632858276367188,0.0000609596724450391
524,0.006317138671875,0.0000622669728962152
525,0.00637102127075195,0.0000654709747098347
526,0.00623416900634766,0.0000567956893920052
527,0.00617647171020508,0.0000687142033662194
528,0.00609588623046875,0.0000619301151086968
529,0.00613641738891602,0.0000684091001839127
530,0.00591421127319336,0.0000589236457122109
531,0.0059208869934082,0.0000463857423215292
532,0.00586843490600586,0.00005517626144772
533,0.00575351715087891,0.0000630706148049894
534,0.00578737258911133,0.0000689883017212174
535,0.0057063102722168,0.000071551000526057
536,0.00558328628540039,0.0000600748588302353
537,0.0055384635925293,0.0000600104820719483
538,0.00562524795532227,0.000054489991198159
539,0.00553083419799805,0.0000657551352536705
540,0.00551366806030273,0.0000702942722754302
541,0.00545072555541992,0.0000576933552050275
542,0.00527000427246094,0.0000659898524933098
543,0.00526857376098633,0.0000546119080493337
544,0.00533962249755859,0.0000559913228724888
545,0.00521564483642578,0.0000415614943468378
546,0.00503301620483398,0.0000390009364669153
547,0.00512838363647461,0.0000515381341971926
548,0.00508022308349609,0.0000611189178066567
549,0.00503635406494141,0.0000638837232832478
550,0.00496578216552734,0.0000511528714443355
551,0.00490665435791016,0.0000565197881554743
552,0.00486326217651367,0.0000683592259882257
553,0.00482749938964844,0.0000538382727671526
554,0.00477313995361328,0.0000560420608016636
555,0.00481510162353516,0.0000479417020788573
556,0.00473308563232422,0.0000513281480024434
557,0.00469875335693359,0.000040167693497949
558,0.00460147857666016,0.0000463759376834316
559,0.00459861755371094,0.000062652846167209
560,0.0045323371887207,0.0000676151055026691
561,0.00446176528930664,0.0000540458686819028
562,0.00440788269042969,0.0000468236122641276
563,0.00443315505981445,0.0000485508279365037
564,0.00432634353637695,0.0000527621985448788
565,0.00437450408935547,0.0000670308227641113
566,0.00429868698120117,0.000059242099619308
567,0.0042576789855957,0.0000400067512410564
568,0.00421714782714844,0.0000396563995617746
569,0.00425291061401367,0.0000481109552598169
570,0.00420761108398438,0.0000522718801823822
571,0.00410795211791992,0.0000528257240245204
572,0.00396633148193359,0.0000393773384027555
573,0.00413179397583008,0.0000364562199958327
574,0.00406074523925781,0.0000419697970409522
575,0.0040283203125,0.0000369079353199336
576,0.00396013259887695,0.0000443791705272786
577,0.003936767578125,0.0000474135374034382
578,0.00378847122192383,0.0000426609392965801
579,0.00388669967651367,0.0000566694431943725
580,0.00387239456176758,0.0000420239376685192
581,0.00385761260986328,0.0000379654918584431
582,0.00369930267333984,0.0000576006655522976
583,0.00368499755859375,0.0000510828149794454
584,0.00370025634765625,0.0000518865879017458
585,0.00372171401977539,0.0000554147559202291
586,0.00356864929199219,0.000048011606113975
587,0.00367307662963867,0.0000430786152928434
588,0.00352239608764648,0.0000539226720551574
589,0.00356626510620117,0.0000583516991163274
590,0.00354385375976562,0.0000355539582694621
591,0.00344038009643555,0.0000269729293551791
592,0.00348138809204102,0.0000379759710859059
593,0.00340843200683594,0.0000463894185265613
594,0.00342226028442383,0.000045093267562784
595,0.00332164764404297,0.0000493854607110416
596,0.00335693359375,0.0000440577923557102
597,0.00338459014892578,0.0000546712049486657
598,0.00334644317626953,0.0000466618721875193
599,0.00329113006591797,0.0000501144283825349
600,0.0032501220703125,0.0000559049627117749
601,0.00317287445068359,0.0000511373116351712
602,0.00321722030639648,0.0000464420788214147
603,0.00320196151733398,0.0000463955448876406
604,0.00315284729003906,0.0000435647571888638
605,0.00317955017089844,0.0000489542494495796
606,0.00310230255126953,0.000051108402278802
607,0.00309467315673828,0.0000545275331088197
608,0.0030360221862793,0.0000512816139583811
609,0.00303363800048828,0.0000482866788548625
610,0.00299596786499023,0.0000637019464823122
611,0.00301122665405273,0.0000504456754891899
612,0.00300121307373047,0.0000357842381039114
613,0.00295543670654297,0.0000418911688434551
614,0.0029149055480957,0.0000479630395335502
615,0.00288152694702148,0.0000346322990568494
616,0.00285816192626953,0.0000438638352358823
617,0.00288820266723633,0.0000480400125494239
618,0.00286674499511719,0.0000519577486861921
619,0.00281572341918945,0.0000622249654007361
620,0.00272893905639648,0.0000533098824737493
621,0.00275182723999023,0.000050005419663142
622,0.00277280807495117,0.0000525462865266889
623,0.00276374816894531,0.0000616836370917527
624,0.0027618408203125,0.0000560947795651154
