Wavelength (nm),Absorbance (AU),Std.Dev.
190,1.03663206100464,0.000354089397762216
191,1.01585245132446,0.0001476379017146
192,0.998135566711426,0.000220028186774724
193,0.981780529022217,0.000232540140596438
194,0.968204021453857,0.000224411542988703
195,0.955790519714356,0.000146735740601165
196,0.945659637451172,0.00010464810415888
197,0.936001777648926,0.0000847416237248473
198,0.926943302154541,0.000120550243020405
199,0.918376922607422,0.000129383768227829
200,0.909896850585938,0.000104541585428261
201,0.901263236999512,0.000076927593558885
202,0.892826557159424,0.0000953865032199859
203,0.884347438812256,0.000136068305067681
204,0.875168323516846,0.000145400152485174
205,0.865549564361572,0.000122330804881566
206,0.855437278747559,0.000146958705724771
207,0.845006942749023,0.000141346631066488
208,0.833972930908203,0.000124836660139877
209,0.8223876953125,0.000134910370142105
210,0.810768127441406,0.0000984758206751985
211,0.798801422119141,0.0000819008595757748
212,0.786747455596924,0.0000836805059892997
213,0.774689674377441,0.000114752424983611
214,0.763020992279053,0.0000876265314828674
215,0.750962734222412,0.000101833484618837
216,0.739447116851807,0.0000783944071573675
217,0.728096008300781,0.0000683442566323632
218,0.717299461364746,0.0000547356303926222
219,0.706396102905273,0.0000764294255886571
220,0.696176052093506,0.0000898632486450486
221,0.685853481292725,0.0000548238325519485
222,0.676039218902588,0.0000497124177484106
223,0.666276931762695,0.0000515524704104296
224,0.656979084014893,0.000066110337991647
225,0.647521018981934,0.0000670952412627047
226,0.638305187225342,0.0000720055686814014
227,0.629247665405273,0.0000451058715453547
228,0.620298862457275,0.0000571687782869375
229,0.611466407775879,0.0000491605003665149
230,0.602784633636475,0.00005430817278285
231,0.594309329986572,0.0000472080827809904
232,0.585640907287598,0.0000582678618255239
233,0.577306270599365,0.0000541152404861247
234,0.569114685058594,0.0000653423513310702
235,0.561013698577881,0.0000830313026100051
236,0.553244113922119,0.0000779698015921914
237,0.545692443847656,0.0000633045103423679
238,0.538447380065918,0.000070189069133509
239,0.531393527984619,0.0000600653959871696
240,0.524564266204834,0.0000558866575555021
241,0.518085479736328,0.0000650563878085797
242,0.511929512023926,0.0000559141130426339
243,0.506171226501465,0.0000395688656534667
244,0.500533580780029,0.0000556501855017083
245,0.495266437530518,0.0000464616581135246
246,0.490362167358398,0.0000483760638590974
247,0.485877990722656,0.0000434105174131052
248,0.481546878814697,0.0000663746362354481
249,0.477503299713135,0.000049519946381789
250,0.473654747009277,0.0000440539215819172
251,0.47004508972168,0.0000592938905498786
252,0.466679096221924,0.000048777434740236
253,0.463286399841309,0.0000478110996115811
254,0.460091114044189,0.0000548725422871676
255,0.45703649520874,0.0000578586434644877
256,0.45369815826416,0.0000619833283550044
257,0.450726509094238,0.0000636626716748175
258,0.447475433349609,0.0000510828149794454
259,0.444280624389648,0.0000553542017400034
260,0.440926074981689,0.0000631264685834562
261,0.437358856201172,0.0000734329223632813
262,0.433783054351807,0.0000620364959564299
263,0.429818630218506,0.0000605141861868023
264,0.426063060760498,0.0000622176568541522
265,0.422148704528809,0.0000661481595377344
266,0.417830467224121,0.0000588918021321588
267,0.413513660430908,0.0000709991153788303
268,0.409025192260742,0.0000787084694370708
269,0.404282569885254,0.000050906693723559
270,0.39949369430542,0.0000532906859243336
271,0.394790649414062,0.0000849345901313913
272,0.389983177185059,0.0000653684440889078
273,0.38483190536499,0.0000853378664531243
274,0.379833221435547,0.000083161275316588
275,0.374939441680908,0.0000646883693012681
276,0.369797229766846,0.0000572502535497808
277,0.364547252655029,0.0000705025951214882
278,0.359403610229492,0.0000558174505666542
279,0.354244232177734,0.0000608308546791912
280,0.349117755889893,0.0000565328610812337
281,0.344039916992187,0.0000395695839316129
282,0.339004039764404,0.0000324363197618764
283,0.333936214447021,0.0000411125170699402
284,0.32875394821167,0.0000499428595458075
285,0.323672771453857,0.0000611096166366607
286,0.318659782409668,0.0000788816075025065
287,0.313604354858398,0.0000629280536129899
288,0.30849027633667,0.0000468029698760677
289,0.303465843200684,0.0000476336216054166
290,0.298551082611084,0.0000390562817627303
291,0.293793678283691,0.0000420563885904734
292,0.288946628570557,0.0000587110289444786
293,0.284206390380859,0.0000446104034314518
294,0.279739856719971,0.0000338167990892357
295,0.275236129760742,0.0000347011669133382
296,0.270925998687744,0.0000373138406168091
297,0.266587734222412,0.0000398800954901884
298,0.26243257522583,0.0000403322218274638
299,0.258297443389893,0.0000500735779223958
300,0.254319667816162,0.0000321157879434611
301,0.250343799591064,0.0000435960612100448
302,0.246434211730957,0.000047788504853697
303,0.242558002471924,0.0000656565115790371
304,0.238978862762451,0.0000607120634850294
305,0.235395908355713,0.0000706749241395909
306,0.231847286224365,0.0000622286193521412
307,0.228312969207764,0.0000541141900616963
308,0.224961280822754,0.0000512860475912046
309,0.221649169921875,0.0000651245051270458
310,0.218270301818848,0.0000779216698296184
311,0.215187549591064,0.0000538256014596926
312,0.212058067321777,0.0000502831509645999
313,0.208922386169434,0.0000618933896621245
314,0.20591402053833,0.0000728765690122897
315,0.202977180480957,0.0000521412220539059
316,0.200037479400635,0.0000519993052681564
317,0.197110652923584,0.0000527589663922261
318,0.194128036499023,0.0000437587409296152
319,0.191452503204346,0.0000516934146738884
320,0.188714027404785,0.0000530072654858722
321,0.186009883880615,0.0000493463106742469
322,0.183319568634033,0.0000546389637398957
323,0.180531978607178,0.0000451965164606964
324,0.177915573120117,0.0000392493757217457
325,0.175304889678955,0.0000446995097619359
326,0.172761917114258,0.0000599194794877789
327,0.170132637023926,0.0000703718597960406
328,0.167673110961914,0.0000628810640491858
329,0.165212154388428,0.0000708356002987286
330,0.162787437438965,0.0000716748269824517
331,0.160298347473145,0.0000487436274967719
332,0.15780782699585,0.0000433712164567915
333,0.155401229858398,0.0000529074410492667
334,0.15297269821167,0.0000481345795947834
335,0.150703907012939,0.0000558520647804844
336,0.148346900939941,0.0000468138993329929
337,0.145998477935791,0.000064206791770507
338,0.143785953521729,0.0000729888019879415
339,0.141644954681396,0.0000440526312484054
340,0.139343738555908,0.0000367806542283898
341,0.1370849609375,0.000046982375857367
342,0.13486909866333,0.0000512183929894944
343,0.132743358612061,0.0000377033184066215
344,0.130513191223145,0.0000399769023471256
345,0.128539562225342,0.0000534206608016786
346,0.126461505889893,0.00004921366061188
347,0.124545574188232,0.0000495956492138664
348,0.122499465942383,0.0000445874615922223
349,0.120583534240723,0.0000513314702485122
350,0.118570327758789,0.0000377613183313741
351,0.116662979125977,0.0000464800062093786
352,0.11483097076416,0.0000670189494449563
353,0.112928867340088,0.0000650196796940435
354,0.111232757568359,0.0000562061370902526
355,0.109567165374756,0.0000567456253082742
356,0.107716083526611,0.0000614343197136764
357,0.106030464172363,0.0000770811359089051
358,0.104202747344971,0.0000530426419019128
359,0.102356910705566,0.0000567626520510478
360,0.100549221038818,0.0000708259700083845
361,0.0987949371337891,0.0000592910144627987
362,0.0971570014953613,0.0000607822438335354
363,0.0954036712646484,0.0000697748173669447
364,0.0939631462097168,0.0000649584534058155
365,0.092308521270752,0.0000583312383390773
366,0.0909204483032227,0.0000584791737758318
367,0.0890994071960449,0.0000489716636611162
368,0.0876340866088867,0.0000582171109396268
369,0.0862469673156738,0.0000540511272386626
370,0.0847611427307129,0.0000544764280389699
371,0.0835533142089844,0.0000492344468223245
372,0.0821332931518555,0.0000573454921326469
373,0.0807390213012695,0.0000652343905436046
374,0.0795283317565918,0.0000627561903906875
375,0.0781512260437012,0.0000577081323331409
376,0.0767860412597656,0.0000679722964523524
377,0.0757641792297363,0.0000588638041590876
378,0.0745615959167481,0.0000380141209852268
379,0.0729517936706543,0.000053856218682633
380,0.071807861328125,0.0000685220139656063
381,0.0707063674926758,0.0000717128844153896
382,0.0698008537292481,0.000083786408380535
383,0.068448543548584,0.0000750181700716262
384,0.0673279762268066,0.0000551422538685384
385,0.0661478042602539,0.0000660673326802568
386,0.065241813659668,0.0000659984658947918
387,0.0641388893127441,0.0000706540094004308
388,0.0629725456237793,0.0000720339825866236
389,0.0614738464355469,0.0000710743339562341
390,0.0608897209167481,0.0000775692566243499
391,0.0598635673522949,0.0000791650214188173
392,0.0588550567626953,0.0000801809869804394
393,0.0575337409973145,0.000058162406614964
394,0.0565996170043945,0.0000623107766110216
395,0.0556321144104004,0.0000650424062077717
396,0.0547065734863281,0.0000559232618762885
397,0.0540976524353027,0.0000501019498312519
398,0.0529570579528809,0.0000570333919812848
399,0.0515646934509277,0.0000746535743202498
400,0.0511665344238281,0.0000612786769598119
401,0.050142765045166,0.0000526014282740373
402,0.0494813919067383,0.000080550202994456
403,0.0486888885498047,0.0000991156245059289
404,0.0480918884277344,0.0000706041107897934
405,0.0471234321594238,0.0000689256525156701
406,0.0456843376159668,0.0000842194859011359
407,0.0453801155090332,0.0000759594259328456
408,0.0451116561889648,0.0000746048269294614
409,0.0438303947448731,0.000056939628012001
410,0.0431222915649414,0.0000790198448177548
411,0.0426115989685059,0.0000879528691170995
412,0.042046070098877,0.000068505420669815
413,0.0409083366394043,0.0000576775887621001
414,0.0401530265808106,0.0000688959566923409
415,0.0397434234619141,0.0000831749448393913
416,0.0390009880065918,0.0000959758424790125
417,0.0384235382080078,0.0000640738564767488
418,0.0378665924072266,0.0000784422488512711
419,0.0372238159179687,0.0000655594736624953
420,0.0367422103881836,0.0000526845721532714
421,0.0365848541259766,0.0000622651470726807
422,0.0351638793945312,0.0000433830104820004
423,0.0346817970275879,0.0000669612490903548
424,0.0340886116027832,0.0000749590439343589
425,0.0336208343505859,0.0000461461608084962
426,0.0331902503967285,0.0000560461178517143
427,0.0332164764404297,0.0000591460707362023
428,0.0319070816040039,0.0000502254640815288
429,0.0321402549743652,0.0000606446139429898
430,0.03094482421875,0.0000550576592401927
431,0.0301117897033691,0.0000657827925147268
432,0.0299892425537109,0.0000480577580450298
433,0.0300650596618652,0.0000665559459776889
434,0.0289926528930664,0.0000480447453224564
435,0.028496265411377,0.0000578949828270672
436,0.0284171104431152,0.0000593973369353788
437,0.0279431343078613,0.0000600597175656792
438,0.0275707244873047,0.0000637465475733505
439,0.0269937515258789,0.0000673269752301132
440,0.0268445014953613,0.0000770575339223882
441,0.0267586708068848,0.0000840735716411748
442,0.0253696441650391,0.0000686662064458661
443,0.0257315635681152,0.0000562233272125506
444,0.0249543190002441,0.0000464494220231084
445,0.0246868133544922,0.0000485660459808122
446,0.0244455337524414,0.0000502571435087704
447,0.0237588882446289,0.0000600303704977721
448,0.0236425399780273,0.0000582532266844723
449,0.0233798027038574,0.0000508787705720293
450,0.0228204727172852,0.0000627163233256899
451,0.0226311683654785,0.000046152319460155
452,0.0223278999328613,0.0000504411679901424
453,0.0219693183898926,0.0000724070591059328
454,0.0218286514282227,0.0000501337073070553
455,0.0213804244995117,0.0000501518454072533
456,0.0211920738220215,0.0000670749052626631
457,0.0210990905761719,0.0000546441652215334
458,0.020474910736084,0.0000574534362179245
459,0.020106315612793,0.0000772785195608488
460,0.019770622253418,0.0000621664729698301
461,0.0197172164916992,0.0000597037445217932
462,0.019406795501709,0.0000519555605769205
463,0.0195822715759277,0.0000589786077639027
464,0.0189895629882812,0.0000687786981382786
465,0.018707275390625,0.0000559659366585448
466,0.0179638862609863,0.0000483455033764124
467,0.0182285308837891,0.0000596237152109371
468,0.0177984237670898,0.0000644453842850369
469,0.0176692008972168,0.0000521226856659695
470,0.0176053047180176,0.0000494142277141399
471,0.0173006057739258,0.0000641323819539913
472,0.0171914100646973,0.0000504411679901424
473,0.0169200897216797,0.0000658311647622006
474,0.016594409942627,0.0000674905685274192
475,0.0166659355163574,0.0000601523979918164
476,0.0160059928894043,0.0000689553355504044
477,0.0160317420959473,0.0000644718400604305
478,0.0159235000610352,0.00006687120512554
479,0.0157151222229004,0.0000881903846358048
480,0.0153608322143555,0.0000775941681167907
481,0.0151505470275879,0.0000594872271816458
482,0.0149297714233398,0.0000527632758850977
483,0.0150661468505859,0.0000461498560981153
484,0.0141892433166504,0.0000671714464299787
485,0.0207362174987793,0.0000634713067574884
486,0.0105280876159668,0.0000532672140801084
487,0.013608455657959,0.0000560613291745217
488,0.0132761001586914,0.0000518241049545041
489,0.0137085914611816,0.0000563263577758862
490,0.0133976936340332,0.0000794288195337395
491,0.013361930847168,0.0000768551451801653
492,0.013206958770752,0.0000541173412738149
493,0.0130681991577148,0.0000732717355094418
494,0.0127487182617187,0.0000738281907385327
495,0.0128769874572754,0.0000723992081447914
496,0.0124979019165039,0.0000539816730426213
497,0.0121946334838867,0.0000744217398353579
498,0.0124673843383789,0.0000852378931292476
499,0.0121326446533203,0.0000686744841702034
500,0.0117015838623047,0.0000785494242934189
501,0.0119566917419434,0.0000847724742240003
502,0.0117039680480957,0.0000667316524113985
503,0.011652946472168,0.000076283513786523
504,0.0113739967346191,0.0000737372816211312
505,0.0113954544067383,0.0000546316808336114
506,0.0110039710998535,0.0000666941617587023
507,0.0108404159545898,0.0000622395799192632
508,0.0109004974365234,0.0000591691318817267
509,0.0107083320617676,0.0000540416614680803
510,0.0106220245361328,0.0000585957010883096
511,0.0103497505187988,0.0000718838935236739
512,0.0103926658630371,0.0000668320916955833
513,0.0101962089538574,0.0000521085063319136
514,0.0101003646850586,0.0000429577088529785
515,0.0100603103637695,0.0000606792848778723
516,0.00988435745239258,0.0000718617486335164
517,0.00967168807983398,0.0000576125065773075
518,0.00970268249511719,0.0000429491069226367
519,0.00949859619140625,0.0000605432987358663
520,0.00939130783081055,0.0000625056946616951
521,0.00926017761230469,0.000059596061088473
522,0.00918245315551758,0.0000493635865767989
523,0.00906991958618164,0.00005441691889601
524,0.00901603698730469,0.000049396969522624
525,0.00897359848022461,0.0000615470993052008
526,0.00874519348144531,0.0000689915974719286
527,0.00865793228149414,0.0000632398258803027
528,0.00870132446289063,0.0000480198930601427
529,0.00851058959960938,0.0000304154273395956
530,0.0083317756652832,0.0000444303753101202
531,0.00834131240844727,0.0000454986112763116
532,0.00833940505981445,0.0000516835170930452
533,0.00815773010253906,0.0000547501675815321
534,0.0080561637878418,0.0000413798780368444
535,0.00782155990600586,0.0000352085398520941
536,0.00768327713012695,0.0000517681352340574
537,0.0077972412109375,0.0000609969600727391
538,0.00776481628417969,0.0000561028857471758
539,0.00754499435424805,0.0000594843604424522
540,0.00752639770507813,0.0000598007789863239
541,0.00743675231933594,0.0000525138231574625
542,0.00723838806152344,0.0000648551125357466
543,0.00708723068237305,0.0000735319386528062
544,0.00714015960693359,0.0000677394135206371
545,0.00693321228027344,0.0000538203208677638
546,0.00691413879394531,0.0000389622938762175
547,0.00710248947143555,0.0000448366407242039
548,0.00673818588256836,0.0000665610701988135
549,0.00661945343017578,0.0000602137910168242
550,0.00662708282470703,0.0000453785157497646
551,0.00658702850341797,0.0000608672873362369
552,0.00647354125976563,0.0000602081265909466
553,0.00640344619750977,0.0000389265335802272
554,0.00622177124023438,0.0000360564256792814
555,0.00643634796142578,0.0000342941735026537
556,0.00618839263916016,0.0000402390952464157
557,0.00606060028076172,0.0000365791913055026
558,0.00594234466552734,0.0000523544616768061
559,0.00603580474853516,0.0000696541419199726
560,0.00603914260864258,0.0000662632103544965
561,0.00578880310058594,0.0000530297804811777
562,0.00572490692138672,0.0000510861531800685
563,0.0057072639465332,0.0000502356489332469
564,0.00567436218261719,0.0000454811170964919
565,0.00556182861328125,0.0000460758939968988
566,0.00559902191162109,0.0000435751943613156
567,0.00570821762084961,0.0000410537132208885
568,0.00551509857177734,0.0000304975481163646
569,0.00574874877929688,0.0000408406224197513
570,0.00561189651489258,0.0000438093733625159
571,0.00547933578491211,0.000044635880534289
572,0.00478172302246094,0.0000444610698735811
573,0.00571870803833008,0.0000352923928641574
574,0.00514745712280273,0.0000424177408309443
575,0.00474452972412109,0.0000341604822242533
576,0.00552463531494141,0.0000315758383391253
577,0.00528573989868164,0.0000415183896238041
578,0.00450420379638672,0.0000434196825176965
579,0.00484132766723633,0.0000577917980217404
580,0.00533676147460938,0.0000451675802198258
581,0.00547885894775391,0.0000312683035101986
582,0.00400400161743164,0.0000453910405259545
583,0.00408840179443359,0.0000488298479163662
584,0.00522375106811523,0.0000481440260828725
585,0.00480318069458008,0.0000513491852640082
586,0.00393438339233398,0.0000348319671015733
587,0.00504302978515625,0.0000425822523857172
588,0.0039362907409668,0.0000475858638015446
589,0.00411462783813477,0.0000511706482898572
590,0.00438070297241211,0.0000377703492590378
591,0.00401449203491211,0.0000281702422603411
592,0.00507450103759766,0.0000296224890404958
593,0.00407934188842773,0.0000290611612934593
594,0.00421905517578125,0.0000327450364173171
595,0.00394201278686523,0.0000374423455376945
596,0.00370979309082031,0.0000302171447552736
597,0.00427055358886719,0.000032533436018783
598,0.00398397445678711,0.0000395077642812008
599,0.004119873046875,0.0000522903636824472
600,0.00384712219238281,0.0000446065806109785
601,0.00365209579467773,0.0000352682249555063
602,0.0037837028503418,0.0000461424652229421
603,0.00366783142089844,0.0000456930932938172
604,0.00327014923095703,0.0000575236394773954
605,0.00389337539672852,0.000034323995969425
606,0.0031886100769043,0.0000491581877474208
607,0.00350761413574219,0.0000426616055146235
608,0.00313329696655273,0.0000381827186950066
609,0.00324535369873047,0.0000370562608666948
610,0.00347614288330078,0.0000361092002380171
611,0.002960205078125,0.0000387897576332411
612,0.00318813323974609,0.0000308565595282192
613,0.00315189361572266,0.0000308943011911878
614,0.00284147262573242,0.0000338436831631145
615,0.00299930572509766,0.0000401613248060298
616,0.00262737274169922,0.0000466167770555697
617,0.00301837921142578,0.0000450226200545505
618,0.00282192230224609,0.0000336364595194786
619,0.00280284881591797,0.0000307301109261682
620,0.00285482406616211,0.000040179720495118
621,0.0024871826171875,0.0000385486790416902
622,0.00289440155029297,0.0000398971961215222
623,0.00251483917236328,0.0000401684010680539
624,0.00263452529907227,0.0000492367558595785
625,0.00237751007080078,0.0000315145714604536
626,0.00229454040527344,0.0000279631555774608
