Wavelength (nm),Absorbance (AU),Std.Dev.
190,1.03663206100464,0.000354089397762216
191,1.01585245132446,0.0001476379017146
192,0.998135566711426,0.000220028186774724
193,0.981780529022217,0.000232540140596438
194,0.968204021453857,0.000224411542988703
195,0.955790519714356,0.000146735740601165
196,0.945659637451172,0.00010464810415888
197,0.936001777648926,0.0000847416237248473
198,0.926943302154541,0.000120550243020405
199,0.918376922607422,0.000129383768227829
200,0.909896850585938,0.000104541585428261
201,0.901263236999512,0.000076927593558885
202,0.892826557159424,0.0000953865032199859
203,0.884347438812256,0.000136068305067681
204,0.875168323516846,0.000145400152485174
205,0.865549564361572,0.000122330804881566
206,0.855437278747559,0.000146958705724771
207,0.845006942749023,0.000141346631066488
208,0.833972930908203,0.000124836660139877
209,0.8223876953125,0.000134910370142105
210,0.810768127441406,0.0000984758206751985
211,0.798801422119141,0.0000819008595757748
212,0.786747455596924,0.0000836805059892997
213,0.774689674377441,0.000114752424983611
214,0.763020992279053,0.0000876265314828674
215,0.750962734222412,0.000101833484618837
216,0.739447116851807,0.0000783944071573675
217,0.728096008300781,0.0000683442566323632
218,0.717299461364746,0.0000547356303926222
219,0.706396102905273,0.0000764294255886571
220,0.696176052093506,0.0000898632486450486
221,0.685853481292725,0.0000548238325519485
222,0.676039218902588,0.0000497124177484106
223,0.666276931762695,0.0000515524704104296
224,0.656979084014893,0.000066110337991647
225,0.647521018981934,0.0000670952412627047
226,0.638305187225342,0.0000720055686814014
227,0.629247665405273,0.0000451058715453547
228,0.620298862457275,0.0000571687782869375
229,0.611466407775879,0.0000491605003665149
230,0.602784633636475,0.00005430817278285
231,0.594309329986572,0.0000472080827809904
232,0.585640907287598,0.0000582678618255239
233,0.577306270599365,0.0000541152404861247
234,0.569114685058594,0.0000653423513310702
235,0.561013698577881,0.0000830313026100051
236,0.553244113922119,0.0000779698015921914
237,0.545692443847656,0.0000633045103423679
238,0.538447380065918,0.000070189069133509
239,0.531393527984619,0.0000600653959871696
240,0.524564266204834,0.0000558866575555021
241,0.518085479736328,0.0000650563878085797
242,0.511929512023926,0.0000559141130426339
243,0.506171226501465,0.0000395688656534667
244,0.500533580780029,0.0000556501855017083
245,0.495266437530518,0.0000464616581135246
246,0.490362167358398,0.0000483760638590974
247,0.485877990722656,0.0000434105174131052
248,0.481546878814697,0.0000663746362354481
249,0.477503299713135,0.000049519946381789
250,0.473654747009277,0.0000440539215819172
251,0.47004508972168,0.0000592938905498786
252,0.466679096221924,0.000048777434740236
253,0.463286399841309,0.0000478110996115811
254,0.460091114044189,0.0000548725422871676
255,0.45703649520874,0.0000578586434644877
256,0.45369815826416,0.0000619833283550044
257,0.450726509094238,0.0000636626716748175
258,0.447475433349609,0.0000510828149794454
259,0.444280624389648,0.0000553542017400034
260,0.440926074981689,0.0000631264685834562
261,0.437358856201172,0.0000734329223632813
262,0.433783054351807,0.0000620364959564299
263,0.429818630218506,0.0000605141861868023
264,0.426063060760498,0.0000622176568541522
265,0.422148704528809,0.0000661481595377344
266,0.417830467224121,0.0000588918021321588
267,0.413513660430908,0.0000709991153788303
268,0.409025192260742,0.0000787084694370708
269,0.404282569885254,0.000050906693723559
270,0.39949369430542,0.0000532906859243336
271,0.394790649414062,0.0000849345901313913
272,0.389983177185059,0.0000653684440889078
273,0.38483190536499,0.0000853378664531243
274,0.379833221435547,0.000083161275316588
275,0.374939441680908,0.0000646883693012681
276,0.369797229766846,0.0000572502535497808
277,0.364547252655029,0.0000705025951214882
278,0.359403610229492,0.0000558174505666542
279,0.354244232177734,0.0000608308546791912
280,0.349117755889893,0.0000565328610812337
281,0.344039916992187,0.0000395695839316129
282,0.339004039764404,0.0000324363197618764
283,0.333936214447021,0.0000411125170699402
284,0.32875394821167,0.0000499428595458075
285,0.323672771453857,0.0000611096166366607
286,0.318659782409668,0.0000788816075025065
287,0.313604354858398,0.0000629280536129899
288,0.30849027633667,0.0000468029698760677
289,0.303465843200684,0.0000476336216054166
290,0.298551082611084,0.0000390562817627303
291,0.293793678283691,0.0000420563885904734
292,0.288946628570557,0.0000587110289444786
293,0.284206390380859,0.0000446104034314518
294,0.279739856719971,0.0000338167990892357
295,0.275236129760742,0.0000347011669133382
296,0.270925998687744,0.0000373138406168091
297,0.266587734222412,0.0000398800954901884
298,0.26243257522583,0.0000403322218274638
299,0.258297443389893,0.0000500735779223958
300,0.254319667816162,0.0000321157879434611
301,0.250343799591064,0.0000435960612100448
302,0.246434211730957,0.000047788504853697
303,0.242558002471924,0.0000656565115790371
304,0.238978862762451,0.0000607120634850294
305,0.235395908355713,0.0000706749241395909
306,0.231847286224365,0.0000622286193521412
307,0.228312969207764,0.0000541141900616963
308,0.224961280822754,0.0000512860475912046
309,0.221649169921875,0.0000651245051270458
310,0.218270301818848,0.0000779216698296184
311,0.215187549591064,0.0000538256014596926
312,0.212058067321777,0.0000502831509645999
313,0.208922386169434,0.0000618933896621245
314,0.20591402053833,0.0000728765690122897
315,0.202977180480957,0.0000521412220539059
316,0.200037479400635,0.0000519993052681564
317,0.197110652923584,0.0000527589663922261
318,0.194128036499023,0.0000437587409296152
319,0.191452503204346,0.0000516934146738884
320,0.188714027404785,0.0000530072654858722
321,0.186009883880615,0.0000493463106742469
322,0.183319568634033,0.0000546389637398957
323,0.180531978607178,0.0000451965164606964
324,0.177915573120117,0.0000392493757217457
325,0.175304889678955,0.0000446995097619359
326,0.172761917114258,0.0000599194794877789
327,0.170132637023926,0.0000703718597960406
328,0.167673110961914,0.0000628810640491858
329,0.165212154388428,0.0000708356002987286
330,0.162787437438965,0.0000716748269824517
331,0.160298347473145,0.0000487436274967719
332,0.15780782699585,0.0000433712164567915
333,0.155401229858398,0.0000529074410492667
334,0.15297269821167,0.0000481345795947834
335,0.150703907012939,0.0000558520647804844
336,0.148346900939941,0.0000468138993329929
337,0.145998477935791,0.000064206791770507
338,0.143785953521729,0.0000729888019879415
339,0.141644954681396,0.0000440526312484054
340,0.139343738555908,0.0000367806542283898
341,0.1370849609375,0.000046982375857367
342,0.13486909866333,0.0000512183929894944
343,0.132743358612061,0.0000377033184066215
344,0.130513191223145,0.0000399769023471256
345,0.128539562225342,0.0000534206608016786
346,0.126461505889893,0.00004921366061188
347,0.124545574188232,0.0000495956492138664
348,0.122499465942383,0.0000445874615922223
349,0.120583534240723,0.0000513314702485122
350,0.118570327758789,0.0000377613183313741
351,0.116662979125977,0.0000464800062093786
352,0.11483097076416,0.0000670189494449563
353,0.112928867340088,0.0000650196796940435
354,0.111232757568359,0.0000562061370902526
355,0.109567165374756,0.0000567456253082742
356,0.107716083526611,0.0000614343197136764
357,0.106030464172363,0.0000770811359089051
358,0.104202747344971,0.0000530426419019128
359,0.102356910705566,0.0000567626520510478
360,0.100549221038818,0.0000708259700083845
361,0.0987949371337891,0.0000592910144627987
362,0.0971570014953613,0.0000607822438335354
363,0.0954036712646484,0.0000697748173669447
364,0.0939631462097168,0.0000649584534058155
365,0.092308521270752,0.0000583312383390773
366,0.0909204483032227,0.0000584791737758318
367,0.0890994071960449,0.0000489716636611162
368,0.0876340866088867,0.0000582171109396268
369,0.0862469673156738,0.0000540511272386626
370,0.0847611427307129,0.0000544764280389699
371,0.0835533142089844,0.0000492344468223245
372,0.0821332931518555,0.0000573454921326469
373,0.0807390213012695,0.0000652343905436046
374,0.0795283317565918,0.0000627561903906875
375,0.0781512260437012,0.0000577081323331409
376,0.0767860412597656,0.0000679722964523524
377,0.0757641792297363,0.0000588638041590876
378,0.0745615959167481,0.0000380141209852268
379,0.0729517936706543,0.000053856218682633
380,0.071807861328125,0.0000685220139656063
381,0.0707063674926758,0.0000717128844153896
382,0.0698008537292481,0.000083786408380535
383,0.068448543548584,0.0000750181700716262
384,0.0673279762268066,0.0000551422538685384
385,0.0661478042602539,0.0000660673326802568
386,0.065241813659668,0.0000659984658947918
387,0.0641388893127441,0.0000706540094004308
388,0.0629725456237793,0.0000720339825866236
389,0.0614738464355469,0.0000710743339562341
390,0.0608897209167481,0.0000775692566243499
391,0.0598635673522949,0.0000791650214188173
392,0.0588550567626953,0.0000801809869804394
393,0.0575337409973145,0.000058162406614964
394,0.0565996170043945,0.0000623107766110216
395,0.0556321144104004,0.0000650424062077717
396,0.0547065734863281,0.0000559232618762885
397,0.0540976524353027,0.0000501019498312519
398,0.0529570579528809,0.0000570333919812848
399,0.0515646934509277,0.0000746535743202498
400,0.0511665344238281,0.0000612786769598119
401,0.050142765045166,0.0000526014282740373
402,0.0494813919067383,0.000080550202994456
403,0.0486888885498047,0.0000991156245059289
404,0.0480918884277344,0.0000706041107897934
405,0.0471234321594238,0.0000689256525156701
406,0.0456843376159668,0.0000842194859011359
407,0.0453801155090332,0.0000759594259328456
408,0.0451116561889648,0.0000746048269294614
409,0.0438303947448731,0.000056939628012001
410,0.0431222915649414,0.0000790198448177548
411,0.0426115989685059,0.0000879528691170995
412,0.042046070098877,0.000068505420669815
413,0.0409083366394043,0.0000576775887621001
414,0.0401530265808106,0.0000688959566923409
415,0.0397434234619141,0.0000831749448393913
416,0.0390009880065918,0.0000959758424790125
417,0.0384235382080078,0.0000640738564767488
418,0.0378665924072266,0.0000784422488512711
419,0.0372238159179687,0.0000655594736624953
420,0.0367422103881836,0.0000526845721532714
421,0.0365848541259766,0.0000622651470726807
422,0.0351638793945312,0.0000433830104820004
423,0.0346817970275879,0.0000669612490903548
424,0.0340886116027832,0.0000749590439343589
425,0.0336208343505859,0.0000461461608084962
426,0.0331902503967285,0.0000560461178517143
427,0.0332164764404297,0.0000591460707362023
428,0.0319070816040039,0.0000502254640815288
429,0.0321402549743652,0.0000606446139429898
430,0.03094482421875,0.0000550576592401927
431,0.0301117897033691,0.0000657827925147268
432,0.0299892425537109,0.0000480577580450298
433,0.0300650596618652,0.0000665559459776889
434,0.0289926528930664,0.0000480447453224564
435,0.028496265411377,0.0000578949828270672
436,0.0284171104431152,0.0000593973369353788
437,0.0279431343078613,0.0000600597175656792
438,0.0275707244873047,0.0000637465475733505
439,0.0269937515258789,0.0000673269752301132
440,0.0268445014953613,0.0000770575339223882
441,0.0267586708068848,0.0000840735716411748
442,0.0253696441650391,0.0000686662064458661
443,0.0257315635681152,0.0000562233272125506
444,0.0249543190002441,0.0000464494220231084
445,0.0246868133544922,0.0000485660459808122
446,0.0244455337524414,0.0000502571435087704
447,0.0237588882446289,0.0000600303704977721
448,0.0236425399780273,0.0000582532266844723
449,0.0233798027038574,0.0000508787705720293
450,0.0228204727172852,0.0000627163233256899
451,0.0226311683654785,0.000046152319460155
452,0.0223278999328613,0.0000504411679901424
453,0.0219693183898926,0.0000724070591059328
454,0.0218286514282227,0.0000501337073070553
455,0.0213804244995117,0.0000501518454072533
456,0.0211920738220215,0.0000670749052626631
457,0.0210990905761719,0.0000546441652215334
458,0.020474910736084,0.0000574534362179245
459,0.020106315612793,0.0000772785195608488
460,0.019770622253418,0.0000621664729698301
461,0.0197172164916992,0.0000597037445217932
462,0.019406795501709,0.0000519555605769205
463,0.0195822715759277,0.0000589786077639027
464,0.0189895629882812,0.0000687786981382786
465,0.018707275390625,0.0000559659366585448
466,0.0179638862609863,0.0000483455033764124
467,0.0182285308837891,0.0000596237152109371
468,0.0177984237670898,0.0000644453842850369
469,0.0176692008972168,0.0000521226856659695
470,0.0176053047180176,0.0000494142277141399
471,0.0173006057739258,0.0000641323819539913
472,0.0171914100646973,0.0000504411679901424
473,0.0169200897216797,0.0000658311647622006
474,0.016594409942627,0.0000674905685274192
475,0.0166659355163574,0.0000601523979918164
476,0.0160059928894043,0.0000689553355504044
477,0.0160317420959473,0.0000644718400604305
478,0.0159235000610352,0.00006687120512554
479,0.0157151222229004,0.0000881903846358048
480,0.0153608322143555,0.0000775941681167907
481,0.0151505470275879,0.0000594872271816458
482,0.0149297714233398,0.0000527632758850977
483,0.0150661468505859,0.0000461498560981153
484,0.0141892433166504,0.0000671714464299787
485,0.0207362174987793,0.0000634713067574884
486,0.0105280876159668,0.0000532672140801084
487,0.013608455657959,0.0000560613291745217
488,0.0132761001586914,0.0000518241049545041
489,0.0137085914611816,0.0000563263577758862
490,0.0133976936340332,0.0000794288195337395
491,0.013361930847168,0.0000768551451801653
492,0.013206958770752,0.0000541173412738149
493,0.0130681991577148,0.0000732717355094418
494,0.0127487182617187,0.0000738281907385327
495,0.0128769874572754,0.0000723992081447914
496,0.0124979019165039,0.0000539816730426213
497,0.0121946334838867,0.0000744217398353579
498,0.0124673843383789,0.0000852378931292476
499,0.0121326446533203,0.0000686744841702034
500,0.0117015838623047,0.0000785494242934189
501,0.0119566917419434,0.0000847724742240003
502,0.0117039680480957,0.0000667316524113985
503,0.011652946472168,0.000076283513786523
504,0.0113739967346191,0.0000737372816211312
505,0.0113954544067383,0.0000546316808336114
506,0.0110039710998535,0.0000666941617587023
507,0.0108404159545898,0.0000622395799192632
508,0.0109004974365234,0.0000591691318817267
509,0.0107083320617676,0.0000540416614680803
510,0.0106220245361328,0.0000585957010883096
511,0.0103497505187988,0.0000718838935236739
512,0.0103926658630371,0.0000668320916955833
513,0.0101962089538574,0.0000521085063319136
514,0.0101003646850586,0.0000429577088529785
515,0.0100603103637695,0.0000606792848778723
516,0.00988435745239258,0.0000718617486335164
517,0.00967168807983398,0.0000576125065773075
518,0.00970268249511719,0.0000429491069226367
519,0.00949859619140625,0.0000605432987358663
520,0.00939130783081055,0.0000625056946616951
521,0.00926017761230469,0.000059596061088473
522,0.00918245315551758,0.0000493635865767989
523,0.00906991958618164,0.00005441691889601
524,0.00901603698730469,0.000049396969522624
525,0.00897359848022461,0.0000615470993052008
526,0.00874519348144531,0.0000689915974719286
527,0.00865793228149414,0.0000632398258803027
528,0.00870132446289063,0.0000480198930601427
529,0.00851058959960938,0.0000304154273395956
530,0.0083317756652832,0.0000444303753101202
531,0.00834131240844727,0.0000454986112763116
532,0.00833940505981445,0.0000516835170930452
533,0.00815773010253906,0.0000547501675815321
534,0.0080561637878418,0.0000413798780368444
535,0.00782155990600586,0.0000352085398520941
536,0.00768327713012695,0.0000517681352340574
537,0.0077972412109375,0.0000609969600727391
538,0.00776481628417969,0.0000561028857471758
539,0.00754499435424805,0.0000594843604424522
540,0.00752639770507813,0.0000598007789863239
541,0.00743675231933594,0.0000525138231574625
542,0.00723838806152344,0.0000648551125357466
543,0.00708723068237305,0.0000735319386528062
544,0.00714015960693359,0.0000677394135206371
545,0.00693321228027344,0.0000538203208677638
546,0.00691413879394531,0.0000389622938762175
547,0.00710248947143555,0.0000448366407242039
548,0.00673818588256836,0.0000665610701988135
549,0.00661945343017578,0.0000602137910168242
550,0.00662708282470703,0.0000453785157497646
551,0.00658702850341797,0.0000608672873362369
552,0.00647354125976563,0.0000602081265909466
553,0.00640344619750977,0.0000389265335802272
554,0.00622177124023438,0.0000360564256792814
555,0.00643634796142578,0.0000342941735026537
556,0.00618839263916016,0.0000402390952464157
557,0.00606060028076172,0.0000365791913055026
558,0.00594234466552734,0.0000523544616768061
559,0.00603580474853516,0.0000696541419199726
560,0.00603914260864258,0.0000662632103544965
561,0.00578880310058594,0.0000530297804811777
562,0.00572490692138672,0.0000510861531800685
563,0.0057072639465332,0.0000502356489332469
564,0.00567436218261719,0.0000454811170964919
565,0.00556182861328125,0.0000460758939968988
566,0.00559902191162109,0.0000435751943613156
567,0.00570821762084961,0.0000410537132208885
568,0.00551509857177734,0.0000304975481163646
569,0.00574874877929688,0.0000408406224197513
570,0.00561189651489258,0.0000438093733625159
571,0.00547933578491211,0.000044635880534289
572,0.00478172302246094,0.0000444610698735811
573,0.00571870803833008,0.0000352923928641574
574,0.00514745712280273,0.0000424177408309443
575,0.00474452972412109,0.0000341604822242533
576,0.00552463531494141,0.0000315758383391253
577,0.00528573989868164,0.0000415183896238041
578,0.00450420379638672,0.0000434196825176965
579,0.00484132766723633,0.0000577917980217404
580,0.00533676147460938,0.0000451675802198258
581,0.00547885894775391,0.0000312683035101986
582,0.00400400161743164,0.0000453910405259545
583,0.00408840179443359,0.0000488298479163662
584,0.00522375106811523,0.0000481440260828725
585,0.00480318069458008,0.0000513491852640082
586,0.00393438339233398,0.0000348319671015733
587,0.00504302978515625,0.0000425822523857172
588,0.0039362907409668,0.0000475858638015446
589,0.00411462783813477,0.0000511706482898572
590,0.00438070297241211,0.0000377703492590378
591,0.00401449203491211,0.0000281702422603411
592,0.00507450103759766,0.0000296224890404958
593,0.00407934188842773,0.0000290611612934593
594,0.00421905517578125,0.0000327450364173171
595,0.00394201278686523,0.0000374423455376945
596,0.00370979309082031,0.0000302171447552736
597,0.00427055358886719,0.000032533436018783
598,0.00398397445678711,0.0000395077642812008
599,0.004119873046875,0.0000522903636824472
600,0.00384712219238281,0.0000446065806109785
601,0.00365209579467773,0.0000352682249555063
602,0.0037837028503418,0.0000461424652229421
603,0.00366783142089844,0.0000456930932938172
604,0.00327014923095703,0.0000575236394773954
605,0.00389337539672852,0.000034323995969425
606,0.0031886100769043,0.0000491581877474208
607,0.00350761413574219,0.0000426616055146235
608,0.00313329696655273,0.0000381827186950066
609,0.00324535369873047,0.0000370562608666948
610,0.00347614288330078,0.0000361092002380171
611,0.002960205078125,0.0000387897576332411
612,0.00318813323974609,0.0000308565595282192
613,0.00315189361572266,0.0000308943011911878
614,0.00284147262573242,0.0000338436831631145
615,0.00299930572509766,0.0000401613248060298
616,0.00262737274169922,0.0000466167770555697
617,0.00301837921142578,0.0000450226200545505
618,0.00282192230224609,0.0000336364595194786
619,0.00280284881591797,0.0000307301109261682
620,0.00285482406616211,0.000040179720495118
621,0.0024871826171875,0.0000385486790416902
622,0.00289440155029297,0.0000398971961215222
623,0.00251483917236328,0.0000401684010680539
624,0.00263452529907227,0.0000492367558595785
625,0.00237751007080078,0.0000315145714604536
626,0.00229454040527344,0.0000279631555774608
627,0.00249671936035156,0.0000535365189921764
628,0.00216150283813477,0.00004233658800044
629,0.0024561882019043,0.0000426256148397518
630,0.00211238861083984,0.0000435817163247966
631,0.00221395492553711,0.0000440861676457452
632,0.00219249725341797,0.0000457279127690482
633,0.00215482711791992,0.0000366506047849112
634,0.00200796127319336,0.0000407821234421208
635,0.00208616256713867,0.000042592263024214
636,0.00210714340209961,0.0000449619766954899
637,0.0018305778503418,0.0000495233899300969
638,0.00188016891479492,0.0000444367717592846
639,0.00181865692138672,0.0000496174210420251
640,0.00192975997924805,0.000058849317222153
641,0.00192451477050781,0.0000607354659449755
642,0.00188350677490234,0.0000532576089804696
643,0.00187301635742187,0.0000499804050129355
644,0.00178766250610352,0.000059663743284672
645,0.00170755386352539,0.0000457502827236365
646,0.00167179107666016,0.0000572522393028398
647,0.00163793563842773,0.0000495818936598051
648,0.00162458419799805,0.0000551937723261277
649,0.00162410736083984,0.0000636662431130226
650,0.00151824951171875,0.0000494751584432442
651,0.00158452987670898,0.0000464237157354802
652,0.00149822235107422,0.0000420320527478008
653,0.0016484260559082,0.0000413152638255065
654,0.00112247467041016,0.0000539005300342761
655,0.00590038299560547,0.0000476061667221844
656,0.00290250778198242,0.0000407479602547686
657,-0.00517177581787109,0.0000448125462511853
658,0.00160694122314453,0.0000421347084701052
659,0.00104999542236328,0.0000455984492619062
660,0.00120687484741211,0.0000515987601847421
661,0.00118732452392578,0.0000427181960724996
662,0.00118398666381836,0.0000406795478081535
663,0.00110864639282227,0.000037248277377009
664,0.00112056732177734,0.0000486876190969883
665,0.00116634368896484,0.0000659088314973263
666,0.00102949142456055,0.0000573583768670789
667,0.00104236602783203,0.0000423842254412902
668,0.000993728637695313,0.0000431320230510525
669,0.000943660736083984,0.0000401337154626862
670,0.000917911529541016,0.0000398301767129684
671,0.000949382781982422,0.000045154993461822
672,0.000929832458496094,0.0000358310683400622
673,0.000746726989746094,0.0000458371732105415
674,0.000833988189697266,0.0000499212296492739
675,0.000868797302246094,0.0000343728157272851
676,0.000828742980957031,0.0000352166113177448
677,0.000871658325195313,0.0000406592812372388
678,0.000811100006103516,0.0000506031850068914
679,0.000799655914306641,0.0000490145922632555
680,0.000710964202880859,0.0000444022199869361
681,0.000720024108886719,0.0000497912529486383
682,0.000659465789794922,0.0000360114670333003
683,0.000749588012695313,0.0000452593575083438
684,0.000711917877197266,0.0000352141900723065
685,0.000700950622558594,0.0000388358910369496
686,0.000616073608398438,0.0000385317175483451
687,0.000652790069580078,0.0000288111861197067
688,0.000557422637939453,0.0000249218702384596
689,0.000551223754882813,0.0000315902368069685
690,0.000494003295898438,0.0000407067869428602
691,0.000559806823730469,0.0000392479274320191
692,0.000494956970214844,0.0000328524883975349
693,0.000510692596435547,0.000051216173292729
694,0.0004730224609375,0.0000438729056419185
695,0.000468254089355469,0.0000474291203586744
696,0.000452041625976563,0.0000424351583724102
697,0.000526905059814453,0.0000404293520767095
698,0.000393390655517578,0.0000375794877317123
699,0.0004425048828125,0.0000543259634728474
700,0.000349044799804687,0.0000487296314319264
701,0.000334739685058594,0.0000492955997661002
702,0.000379085540771484,0.0000425214706604156
703,0.000323295593261719,0.0000379377828234026
704,0.000355243682861328,0.0000452442836169987
705,0.000212669372558594,0.0000489844301482872
706,0.000345230102539062,0.0000475990019743491
707,0.000356674194335937,0.0000456208826982734
708,0.000091552734375,0.0000531657394030455
709,0.000209331512451172,0.0000446524328560237
710,0.000255107879638672,0.0000407828203520458
711,0.000177383422851562,0.0000399164255747988
712,0.000123500823974609,0.0000549087874240295
713,0.000216484069824219,0.0000444968534366158
714,0.000166893005371094,0.0000459993415569692
715,0.0000619888305664063,0.0000489124300460904
716,-0.00000619888305664063,0.0000422142296066899
717,0.0000920295715332031,0.0000455809934003476
718,0.000106334686279297,0.0000533535821638205
719,0.0000591278076171875,0.0000444214187339181
720,0.0000233650207519531,0.0000458371732105415
721,-0.00008392333984375,0.0000625366070203972
722,-0.0000157356262207031,0.0000570004924123122
723,0.000000476837158203125,0.0000342444116769214
724,-0.00005340576171875,0.0000381626156681216
725,-0.000162601470947266,0.0000488007364349393
726,-0.000135421752929687,0.0000403378589527336
727,-0.000161170959472656,0.0000412098772369623
728,-0.000133514404296875,0.0000403491308406067
729,-0.00019073486328125,0.0000455622832702303
730,-0.000247478485107422,0.0000597703537597366
731,-0.000269889831542969,0.0000523077539514567
732,-0.00037384033203125,0.0000416018217636562
733,-0.000307083129882812,0.0000510182335017237
734,-0.000306606292724609,0.0000642705030459323
735,-0.000364303588867187,0.0000591527978323587
736,-0.000430107116699219,0.0000603552288892687
737,-0.000399112701416016,0.0000523891938883894
738,-0.000570774078369141,0.0000466837946093008
739,-0.000372409820556641,0.0000552822717662044
740,-0.000529289245605469,0.000050698577041649
741,-0.000467300415039063,0.0000478479418370101
742,-0.000437736511230469,0.0000505503615364793
743,-0.000511646270751953,0.0000472080827809904
744,-0.000489234924316406,0.000050743405360272
745,-0.000615119934082031,0.0000459040906365669
746,-0.000532150268554688,0.0000595540785874591
747,-0.000492572784423828,0.0000519818118092027
748,-0.000564098358154297,0.0000500315579704904
749,-0.000448703765869141,0.0000450604807087992
750,-0.000438213348388672,0.0000338453627086932
751,-0.000538825988769531,0.0000436025800523155
752,-0.000564098358154297,0.0000366901328079043
753,-0.000471115112304688,0.0000455822404692908
754,-0.000547885894775391,0.0000593935088007437
755,-0.000505924224853516,0.0000431715417562099
756,-0.000485897064208984,0.000038832963561366
757,-0.000485897064208984,0.0000420192031485077
758,-0.000643253326416016,0.0000541866215761435
759,-0.000628471374511719,0.0000455185963917656
760,-0.000551700592041016,0.0000355851210755594
761,-0.000668048858642578,0.0000540258814982668
762,-0.000677108764648438,0.0000501359749284377
763,-0.000533103942871094,0.0000487086297940355
764,-0.000557422637939453,0.0000537294134554342
765,-0.000562667846679688,0.0000453722520651446
766,-0.000726699829101563,0.0000632380281452194
767,-0.000683307647705078,0.0000560238004406911
768,-0.000463008880615234,0.0000503509332703182
769,-0.000624179840087891,0.0000552164252194788
770,-0.000601291656494141,0.0000429471216171177
771,-0.00054168701171875,0.0000455485576235052
772,-0.000662326812744141,0.0000481617332540486
773,-0.000548839569091797,0.0000438469852180312
774,-0.000695705413818359,0.0000412036696316694
775,-0.000722408294677734,0.00006277430341395
776,-0.000720977783203125,0.0000537198909969622
777,-0.000726699829101563,0.000053905802768946
778,-0.000638008117675781,0.0000578527484439968
779,-0.000668048858642578,0.0000411767591947227
780,-0.000704765319824219,0.000039998935826548
781,-0.000704765319824219,0.0000404771276380263
782,-0.000761508941650391,0.0000424244407316085
783,-0.000759601593017578,0.0000397444557985513
784,-0.000751972198486328,0.0000351511791520197
785,-0.000715732574462891,0.0000446626158511061
786,-0.00072479248046875,0.0000503554488466037
787,-0.000673770904541016,0.0000516813173732215
788,-0.000660896301269531,0.0000519238226305433
789,-0.000735759735107422,0.0000458148456818769
790,-0.000755786895751953,0.0000482572397044172
791,-0.000823020935058594,0.0000485800891751243
792,-0.000800609588623047,0.0000548632182387937
793,-0.000783443450927734,0.0000521085063319136
794,-0.000740528106689453,0.0000627906006675015
795,-0.000862598419189453,0.0000460450413906907
796,-0.000952720642089844,0.0000585869695793444
797,-0.000919342041015625,0.0000563495641293235
798,-0.000827312469482422,0.0000631408744413762
799,-0.000929355621337891,0.0000580048443008963
800,-0.000932693481445313,0.0000537082501438146
801,-0.000952720642089844,0.0000484042564099975
802,-0.000898361206054688,0.0000347101752048996
803,-0.000860214233398438,0.0000545473364780549
804,-0.00103235244750977,0.0000469097264001785
805,-0.00100851058959961,0.0000578704317039658
806,-0.000955581665039063,0.0000695969928083619
807,-0.000903129577636719,0.0000586596924414044
808,-0.00102043151855469,0.0000519807182725446
809,-0.00102663040161133,0.0000415696997026508
810,-0.00102949142456055,0.0000393917713242542
811,-0.000989913940429688,0.000037881553679081
812,-0.00116205215454102,0.0000341854332773384
813,-0.00101280212402344,0.0000255369560222165
814,-0.00110387802124023,0.0000442316265849594
815,-0.00113964080810547,0.0000540826678419412
816,-0.00117588043212891,0.0000468854848986887
817,-0.00112152099609375,0.0000383142439841943
818,-0.00119590759277344,0.0000430541971130684
819,-0.00114679336547852,0.0000447389144361681
820,-0.00112342834472656,0.0000594155172066323
821,-0.00121736526489258,0.0000598986052563537
822,-0.00114727020263672,0.0000443855743556156
823,-0.00116634368896484,0.0000416236779184465
824,-0.0012354850769043,0.0000456657165095173
825,-0.00118923187255859,0.0000588831145306857
826,-0.00128746032714844,0.0000613546947725938
827,-0.00133562088012695,0.0000422236543793924
828,-0.00128507614135742,0.0000389462422947555
829,-0.00132608413696289,0.000058565620410452
830,-0.00136852264404297,0.0000583039461332939
831,-0.00132989883422852,0.0000500906029961316
832,-0.00134897232055664,0.0000541404445583561
833,-0.00138521194458008,0.0000525787298522562
834,-0.00125741958618164,0.0000446320598959779
835,-0.00140714645385742,0.000051424405997955
836,-0.00136327743530273,0.0000609120976151919
837,-0.00143098831176758,0.0000445313317831181
838,-0.00143051147460937,0.0000376542878918874
839,-0.00142002105712891,0.0000277555478078005
840,-0.00130844116210937,0.0000329155823811003
841,-0.00134658813476562,0.0000453359056286416
842,-0.00143289566040039,0.0000455036083780593
843,-0.00138664245605469,0.0000472562223772246
844,-0.00136327743530273,0.0000570543181931309
845,-0.0013575553894043,0.0000444354925431127
846,-0.00136232376098633,0.000040518534321195
847,-0.00123500823974609,0.000059796026065137
848,-0.00130987167358398,0.0000495945030634158
849,-0.00122690200805664,0.000057402955538224
850,-0.00126409530639648,0.0000492159706243487
851,-0.00127410888671875,0.0000509212077110767
852,-0.00121355056762695,0.0000574178074040549
853,-0.00110912322998047,0.0000538657170409072
854,-0.00125598907470703,0.0000541152404861247
855,-0.00131654739379883,0.0000667095013905436
856,-0.00125598907470703,0.0000508049797129334
857,-0.00127601623535156,0.0000476896759123076
858,-0.00123691558837891,0.0000569036774908887
859,-0.00121498107910156,0.0000722813413982792
860,-0.00116348266601562,0.0000680191116372368
861,-0.00116443634033203,0.0000454648664735136
862,-0.00123214721679687,0.0000405381701519193
863,-0.00121927261352539,0.000054269431708985
864,-0.001220703125,0.0000576154664533185
865,-0.00112152099609375,0.0000609550098877677
866,-0.00107097625732422,0.0000563596508678146
867,-0.00115442276000977,0.0000495841865171515
868,-0.00116252899169922,0.0000517197989627947
869,-0.00104045867919922,0.000062248712250966
870,-0.00108718872070312,0.0000669884083894193
871,-0.00102519989013672,0.0000600909422435193
872,-0.0011448860168457,0.0000612768216887065
873,-0.00112628936767578,0.0000737943055178745
874,-0.00108575820922852,0.0000589303981989109
875,-0.00108003616333008,0.0000625093322032154
876,-0.00103998184204102,0.0000748816546966314
877,-0.00112819671630859,0.0000498836396431809
878,-0.000985622406005859,0.0000502888029795635
879,-0.00102424621582031,0.0000601249870342767
880,-0.00107383728027344,0.0000691183643812392
881,-0.00108432769775391,0.0000654344991749116
882,-0.00108909606933594,0.0000552617031485463
883,-0.00108051300048828,0.0000643677179487247
884,-0.00107049942016602,0.0000486712711730988
885,-0.00101327896118164,0.0000579852414465681
886,-0.00110673904418945,0.0000609195627904898
887,-0.00103425979614258,0.0000689124559517896
888,-0.0011143684387207,0.0000603222563815029
889,-0.00107955932617187,0.0000554721699288119
890,-0.00102901458740234,0.0000581164543126255
891,-0.00110530853271484,0.0000603655879578006
892,-0.00107622146606445,0.0000802858413740566
893,-0.00105476379394531,0.0000651384691057915
894,-0.00106048583984375,0.0000546067034950863
895,-0.00107383728027344,0.0000615304726928476
896,-0.00111007690429687,0.000075157462829956
897,-0.00110054016113281,0.0000628882954981257
898,-0.00120639801025391,0.000057979359297861
899,-0.00117588043212891,0.0000560623431159615
900,-0.00117588043212891,0.0000682227171572854
901,-0.00112819671630859,0.0000565750760424975
902,-0.00118780136108398,0.000047640781146769
903,-0.00115537643432617,0.0000723175076234641
904,-0.00106382369995117,0.0000763669260965993
905,-0.0010838508605957,0.0000567516353302121
906,-0.0010828971862793,0.0000643005669824126
907,-0.00119829177856445,0.0000616227859933111
908,-0.00116920471191406,0.000074164658582422
909,-0.00113201141357422,0.00011333487403769
910,-0.00117397308349609,0.000049529128645243
911,-0.00121355056762695,0.0000391057348430165
912,-0.00122928619384766,0.000054097380496932
913,-0.00125741958618164,0.0000988008432865269
914,-0.0013127326965332,0.000101853577825096
915,-0.0012516975402832,0.0000351107280590184
916,-0.00130319595336914,0.0000364453037924024
917,-0.00138092041015625,0.000039517115316583
918,-0.00140237808227539,0.0000461621715937841
919,-0.00144147872924805,0.0000475141370907212
920,-0.0014643669128418,0.0000800873523758785
921,-0.00143814086914062,0.0000784364514122291
922,-0.00147676467895508,0.0000964909180288459
923,-0.00149965286254883,0.0000678584679688271
924,-0.00159215927124023,0.0000573772031972852
925,-0.00168561935424805,0.0000785277113616327
926,-0.00179100036621094,0.0000632506112177872
927,-0.00174236297607422,0.0000950019508907246
928,-0.00189590454101562,0.0000885814062856644
929,-0.00200271606445312,0.0000785610020699271
930,-0.00206375122070312,0.0000733244701960448
931,-0.00208663940429687,0.0000623910035468907
932,-0.00216484069824219,0.0000570014896479363
933,-0.00216102600097656,0.0000719408062259442
934,-0.00237274169921875,0.0000730479665377605
935,-0.00244522094726562,0.0000558713986773209
936,-0.0024876594543457,0.000067115571100944
937,-0.00252819061279297,0.0000689091564159398
938,-0.00263261795043945,0.0000757991121635012
939,-0.00271463394165039,0.0000753915588028919
940,-0.0028533935546875,0.000055461921786337
941,-0.00296926498413086,0.000103943938301911
942,-0.00302886962890625,0.0000582200400778802
943,-0.00311517715454102,0.000051353613063039
944,-0.00317907333374023,0.0000693498953349985
945,-0.0032658576965332,0.000139748272730542
946,-0.00353717803955078,0.000079985080520971
947,-0.00355195999145508,0.0000775604624225616
948,-0.00367069244384766,0.0000680575428769955
949,-0.00383567810058594,0.0000919195614625663
950,-0.00398683547973633,0.0000858796827564711
951,-0.00416707992553711,0.000102096614914597
952,-0.00422286987304688,0.0000994202616113445
953,-0.00456905364990234,0.0000927861888805793
954,-0.00464248657226563,0.0000706137713372546
955,-0.00477409362792969,0.0000914757126436402
956,-0.00476646423339844,0.0000890294688625686
957,-0.00533342361450195,0.000120331252796503
958,-0.00544548034667969,0.000139732001551761
959,-0.0056910514831543,0.0000902319043923559
960,-0.00579452514648438,0.0000552791869614534
961,-0.00570774078369141,0.000111001709321383
962,-0.0057988166809082,0.000110436968225205
963,-0.00575542449951172,0.000117206922674939
964,-0.00587129592895508,0.0000937733945428636
965,-0.00557279586791992,0.000124054664759934
966,-0.00577497482299805,0.000134765350516012
967,-0.00566625595092773,0.000130886371340162
968,-0.00566864013671875,0.000130102290120874
969,-0.00561714172363281,0.000162183526506162
970,-0.00533390045166016,0.000137266171129779
971,-0.00542545318603516,0.000138860351332869
972,-0.00516653060913086,0.000171936662135879
973,-0.00491142272949219,0.00012322343140044
974,-0.00490379333496094,0.000160214446814691
975,-0.00474119186401367,0.00014430135549291
976,-0.00499773025512695,0.000105261195149726
977,-0.00441074371337891,0.00011949124370904
978,-0.00457525253295898,0.000120130791974339
979,-0.00435876846313477,0.000101614434748357
980,-0.00416278839111328,0.000105481294238074
981,-0.00429344177246094,0.000172401527991893
982,-0.00416851043701172,0.000160622651594327
983,-0.00369548797607422,0.000190462872169132
984,-0.00371837615966797,0.000157159624637015
985,-0.00351858139038086,0.000197182399064401
986,-0.00362157821655273,0.000208486380339656
987,-0.003509521484375,0.000177003597383426
988,-0.00329971313476562,0.00017251491276442
989,-0.00318288803100586,0.000160052578142735
990,-0.00304841995239258,0.000194296953350254
991,-0.00287580490112305,0.00018330900482983
992,-0.00291824340820312,0.000171727591565791
993,-0.00252056121826172,0.000159964475538731
994,-0.0025172233581543,0.00022739883632948
995,-0.00248289108276367,0.000223131259496409
996,-0.00248527526855469,0.000266694813705573
997,-0.00235080718994141,0.000195728730206067
998,-0.00207757949829102,0.000190419890689715
999,-0.00198507308959961,0.000208769741817061
1000,-0.00206661224365234,0.000209422189628736
1001,-0.00173521041870117,0.000176525090205738
1002,-0.0019078254699707,0.000228372643235714
1003,-0.00202226638793945,0.000209634882568879
1004,-0.00228404998779297,0.00014995751565472
1005,-0.00163650512695312,0.000177034424401287
1006,-0.00144290924072266,0.000177670318593553
1007,-0.00171756744384766,0.000176962486339465
1008,-0.00186395645141602,0.000158125988822652
1009,-0.00166034698486328,0.000205104285513017
1010,-0.00141620635986328,0.000176556000771895
1011,-0.00145339965820312,0.000207581405671601
1012,-0.00111532211303711,0.000280497001162174
1013,-0.00115156173706055,0.000201728607133762
1014,-0.00144004821777344,0.000245085022153316
1015,-0.00152063369750977,0.00023584888373794
1016,-0.00171995162963867,0.000231005827051667
1017,-0.00117397308349609,0.000223208691056421
1018,-0.00180959701538086,0.000219709673868266
1019,-0.00172662734985352,0.000226042943587282
1020,-0.00126791000366211,0.000224731485977045
1021,-0.00200366973876953,0.000202106966841882
1022,-0.00161838531494141,0.000195356639702355
1023,-0.00191497802734375,0.000283091919950788
1024,-0.00150537490844727,0.000380801569391036
1025,-0.00193691253662109,0.000341953088621147
1026,-0.00122213363647461,0.000356005485465408
1027,-0.00125551223754883,0.00030814160197074
1028,-0.00150585174560547,0.000330857646587456
1029,-0.00179815292358398,0.000444236196599846
1030,-0.00188302993774414,0.000260267488150264
1031,-0.00195407867431641,0.00034360873709112
1032,-0.00244426727294922,0.00025700416965792
1033,-0.00202608108520508,0.000302523772371703
1034,-0.00216007232666016,0.000334542643053721
1035,-0.00201988220214844,0.000353287102671046
1036,-0.00192356109619141,0.000371683477195988
1037,-0.00238656997680664,0.000394595353423637
1038,-0.00270414352416992,0.000286889582473193
1039,-0.00225734710693359,0.000360998167346649
1040,-0.00185394287109375,0.000406287644893343
1041,-0.00229358673095703,0.000399579296117355
1042,-0.003173828125,0.000389005612375692
1043,-0.00269365310668945,0.000505645281360764
1044,-0.00300407409667969,0.000339914999541404
1045,-0.00290679931640625,0.000340257310805935
1046,-0.00310277938842773,0.000562263602179858
1047,-0.00321722030639648,0.000583336940112771
1048,-0.00381565093994141,0.000543323248465083
1049,-0.00265026092529297,0.000474918319379314
1050,-0.00275516510009766,0.000445209655472099
1051,-0.00294923782348633,0.000463607363965434
1052,-0.00346136093139648,0.000371536630571318
1053,-0.00357341766357422,0.000382840554513378
1054,-0.00458002090454102,0.000531202586771998
1055,-0.0043187141418457,0.000517914523260824
1056,-0.00381946563720703,0.000627004419290294
1057,-0.00359153747558594,0.000549726862675906
1058,-0.00406217575073242,0.000516719015142732
1059,-0.00478744506835938,0.000502078507308368
1060,-0.00500822067260742,0.000514531819958376
1061,-0.00508451461791992,0.000529254018625115
1062,-0.00503206253051758,0.00073492100637828
1063,-0.00497102737426758,0.00106514107932442
1064,-0.00405597686767578,0.000972456046837413
1065,-0.00476360321044922,0.000795983912552944
1066,-0.00481271743774414,0.000736878663574459
1067,-0.00504016876220703,0.000615432571094456
1068,-0.00588512420654297,0.000908298564326197
1069,-0.00324916839599609,0.00092266794931325
1070,-0.00647068023681641,0.00110027402572191
1071,-0.00319910049438477,0.000987498325711654
1072,-0.00392675399780273,0.000826725077910386
1073,-0.00557470321655273,0.000918003548307511
1074,-0.00648260116577148,0.000891578892339185
1075,-0.00465488433837891,0.000870637274785332
1076,-0.00408363342285156,0.00119873788835207
1077,-0.00447702407836914,0.00115951737881727
1078,-0.00429201126098633,0.000762176131820201
1079,-0.00631237030029297,0.00103287463383609
1080,-0.00437688827514648,0.00116874256303787
1081,-0.00456428527832031,0.00132869799258728
1082,-0.00582504272460938,0.000883281598955656
1083,-0.00568914413452148,0.00161133823969585
1084,-0.00335216522216797,0.00121989223249995
1085,-0.00327444076538086,0.00111749145734432
1086,-0.00391483306884766,0.00101928825149929
1087,-0.00786018371582031,0.00151853702449032
1088,-0.00620508193969727,0.00141828782193446
1089,-0.00780200958251953,0.00169907832387572
1090,-0.00534534454345703,0.0017204919029433
1091,-0.00404739379882813,0.000982297508376433
1092,-0.00620937347412109,0.00162396819570686
1093,-0.00856685638427734,0.00208995284036425
1094,-0.00864791870117188,0.00142119873124673
1095,-0.0100784301757812,0.0015753545095332
1096,-0.00850963592529297,0.00198223357410339
1097,-0.00840282440185547,0.00197800053992905
1098,-0.0077204704284668,0.00127889681523081
1099,-0.00972175598144531,0.00160489532226277
1100,-0.0102109909057617,0.00222882808062869
