Wavelength (nm),Absorbance (AU),Std.Dev.
190,0.914643287658691,0.000323434816613676
191,0.823766708374023,0.000208656443403673
192,0.747522830963135,0.000138853801470771
193,0.682682514190674,0.0000880174747973481
194,0.631475448608398,0.0000445823618024776
195,0.589166164398193,0.0000491951766072423
196,0.555455684661865,0.0000631696763014401
197,0.528500556945801,0.0000470464562278833
198,0.505969047546387,0.0000437080498429527
199,0.487485408782959,0.0000609120976151919
200,0.471442699432373,0.0000666685878623832
201,0.457165718078613,0.0000692219100884299
202,0.444583892822266,0.0000579077452974711
203,0.433484077453613,0.0000536468293277684
204,0.423671722412109,0.0000541446440964138
205,0.414614200592041,0.0000552678745376044
206,0.40579891204834,0.0000757300879156009
207,0.397258281707764,0.000071379193882615
208,0.388818740844727,0.0000411083689692617
209,0.380657196044922,0.0000410260116568565
210,0.372560977935791,0.0000460141680977433
211,0.364312648773193,0.0000350945345667545
212,0.356081962585449,0.0000365636481794055
213,0.347846984863281,0.0000499462739363551
214,0.339795112609863,0.0000379744742304596
215,0.331523418426514,0.0000403110755869143
216,0.323531627655029,0.000059161445832023
217,0.315619468688965,0.0000481322176830768
218,0.307920455932617,0.0000453020396290345
219,0.300352573394775,0.0000392073535992017
220,0.293014526367187,0.0000297794254082826
221,0.285979747772217,0.0000363813002540304
222,0.279128074645996,0.0000369040847669482
223,0.272621631622314,0.0000403075501349265
224,0.266419410705566,0.0000257514140277808
225,0.260565280914307,0.0000274694004970585
226,0.254958629608154,0.0000364140966078532
227,0.249853134155273,0.0000483784138658442
228,0.244873523712158,0.0000363883305325164
229,0.240070343017578,0.0000392689224050775
230,0.235586643218994,0.0000509948303854836
231,0.231277942657471,0.000058449033127457
232,0.227287292480469,0.000063858804162577
233,0.223374843597412,0.0000436781275217521
234,0.219561576843262,0.000036721105405694
235,0.216001033782959,0.0000346216286953381
236,0.212649822235107,0.0000258697891749763
237,0.209461688995361,0.0000366118103916853
238,0.206427574157715,0.0000430059800431767
239,0.20354700088501,0.0000501722429320438
240,0.200723648071289,0.0000369287213681931
241,0.198078632354736,0.0000403674409454301
242,0.195577144622803,0.0000414930532795088
243,0.193020343780518,0.000055103067626666
244,0.190659046173096,0.0000355187674081854
245,0.188340187072754,0.0000461252152420162
246,0.186138153076172,0.0000426849165952738
247,0.184029102325439,0.0000324047600919326
248,0.18195915222168,0.0000322782128424073
249,0.179910182952881,0.000028767748177334
250,0.178050518035889,0.0000447579687596812
251,0.176156520843506,0.0000518208142913858
252,0.174342155456543,0.0000407967560505055
253,0.172687530517578,0.0000366730867291903
254,0.170925140380859,0.0000418157913661492
255,0.169332027435303,0.0000424505602404177
256,0.167728424072266,0.0000374855880871459
257,0.166162014007568,0.0000387340315150923
258,0.164487838745117,0.0000408127762211572
259,0.162961006164551,0.0000398487252729202
260,0.161358833312988,0.000034704442926271
261,0.159766674041748,0.0000388892787566272
262,0.158151149749756,0.0000520473819632714
263,0.156655311584473,0.000045027669981105
264,0.155024528503418,0.0000396649990196577
265,0.153480529785156,0.0000458061598149217
266,0.151764392852783,0.0000596189481739348
267,0.150217056274414,0.0000566965196160989
268,0.148494243621826,0.0000621719589729562
269,0.146854400634766,0.0000483360962637337
270,0.145211696624756,0.0000608560796109917
271,0.14368200302124,0.0000540469204341857
272,0.142070293426514,0.0000455535492462734
273,0.140307426452637,0.0000591133853797033
274,0.138730525970459,0.0000526370774465443
275,0.137083053588867,0.0000461818695556765
276,0.135536193847656,0.0000454135764183778
277,0.133832454681396,0.0000468551653848551
278,0.132078170776367,0.0000576480150593087
279,0.130443572998047,0.0000586606614705108
280,0.128744602203369,0.0000523794277816755
281,0.126998424530029,0.0000557247008563368
282,0.125299453735352,0.0000518284921803282
283,0.12355375289917,0.0000499326149733094
284,0.12175989151001,0.0000474446981957731
285,0.120096206665039,0.0000359917306116135
286,0.118233203887939,0.0000393029249235023
287,0.116483211517334,0.0000391079151562558
288,0.114764213562012,0.0000432360112944815
289,0.113015174865723,0.0000377214058715174
290,0.111256122589111,0.0000285824004567064
291,0.10955286026001,0.0000346027423029456
292,0.107785701751709,0.0000439518685218922
293,0.106185436248779,0.0000476694085591552
294,0.104543685913086,0.0000422101897741904
295,0.102951526641846,0.0000296042536132215
296,0.101402282714844,0.0000338529196326218
297,0.0998086929321289,0.0000510995038017991
298,0.098236083984375,0.0000642934943797423
299,0.0967550277709961,0.0000612322783183747
300,0.0953221321105957,0.0000382392482506577
301,0.0938940048217773,0.000043494240764585
302,0.0925374031066895,0.0000546867987096048
303,0.0911245346069336,0.0000449037832908384
304,0.0897235870361328,0.0000389528096502877
305,0.0883378982543945,0.0000440797203201216
306,0.0870018005371094,0.0000588280632613697
307,0.0857462882995606,0.0000559364742165103
308,0.0845708847045898,0.0000685717697610762
309,0.0831794738769531,0.0000720024108886719
310,0.0820679664611816,0.0000634766799898161
311,0.0808243751525879,0.0000506346281145412
312,0.0795841217041016,0.0000324100221710642
313,0.0786128044128418,0.0000452467962809618
314,0.0774321556091309,0.0000467154421674904
315,0.0761160850524902,0.0000641217449313411
316,0.0751361846923828,0.000053623513373266
317,0.0740680694580078,0.000066362645514325
318,0.0729207992553711,0.0000629912534417267
319,0.0718612670898438,0.0000428178793089714
320,0.0708298683166504,0.0000323353961863111
321,0.0697598457336426,0.000032603250339454
322,0.0687923431396484,0.0000531090429576103
323,0.0677556991577148,0.0000504727120300264
324,0.0668320655822754,0.0000674518142500191
325,0.0658869743347168,0.0000706717068902827
326,0.0647392272949219,0.0000652796861600686
327,0.0639247894287109,0.0000460906959121482
328,0.0630974769592285,0.0000486736069269656
329,0.062161922454834,0.0000357063165508438
330,0.0611948966979981,0.0000375371105270732
331,0.0603017807006836,0.0000582317551574967
332,0.0593953132629395,0.0000565258221892085
333,0.0585885047912598,0.0000477920731572192
334,0.057736873626709,0.0000607448244044749
335,0.0568628311157227,0.0000600010090759348
336,0.0560097694396973,0.0000569026785410788
337,0.0552759170532227,0.0000560542310709016
338,0.0543808937072754,0.0000354009442758839
339,0.0535960197448731,0.0000461313766899594
340,0.0528330802917481,0.0000641111061438446
341,0.0520920753479004,0.0000607120634850294
342,0.0512905120849609,0.0000632308366937667
343,0.0504674911499023,0.0000505222414439989
344,0.0498414039611816,0.0000587236140629115
345,0.0490899085998535,0.0000395199921131009
346,0.0483646392822266,0.0000355931071438113
347,0.0477070808410645,0.000053554566024205
348,0.0469603538513184,0.0000693957811821991
349,0.0463123321533203,0.0000537050749277701
350,0.0455436706542969,0.0000567936876759882
351,0.0448741912841797,0.0000714094490887961
352,0.0442662239074707,0.0000657655080895842
353,0.0435619354248047,0.0000767944725873621
354,0.0428552627563477,0.0000671985207746613
355,0.0421085357666016,0.0000754367837927441
356,0.0416312217712402,0.0000575443874093513
357,0.0410685539245606,0.0000792884276066181
358,0.0404033660888672,0.0000579626899681959
359,0.0398626327514648,0.0000705509541333623
360,0.0391535758972168,0.0000595941534345909
361,0.038449764251709,0.0000681476875684569
362,0.0378923416137695,0.0000537294134554342
363,0.037287712097168,0.0000550039464533923
364,0.0367441177368164,0.0000778691285216427
365,0.0361294746398926,0.0000879192554015792
366,0.0357246398925781,0.000108093840868371
367,0.0353488922119141,0.000071516036351437
368,0.0347170829772949,0.0000520539344359002
369,0.0341148376464844,0.0000627090720453644
370,0.033566951751709,0.0000700869523112226
371,0.0331263542175293,0.0000783029918457922
372,0.0328164100646973,0.0000837158216718127
373,0.0323085784912109,0.000109090504502907
374,0.0318832397460937,0.0000994797057192633
375,0.0316061973571777,0.0000648866577054353
376,0.0309228897094727,0.0000711638522927695
377,0.030545711517334,0.0000724149092159015
378,0.0304470062255859,0.0000725826980761923
379,0.0299620628356934,0.0000667299487477718
380,0.0292778015136719,0.0000634265121192795
381,0.0288653373718262,0.0000685087396504942
382,0.0285439491271973,0.0000784306535446518
383,0.0280590057373047,0.000114283851286217
384,0.0277318954467773,0.0000790629944113258
385,0.0272030830383301,0.000078930594240412
386,0.026667594909668,0.0000653510500745797
387,0.0264935493469238,0.000072361511674247
388,0.0263919830322266,0.0000832323323198647
389,0.0250439643859863,0.0000772593924887824
390,0.0253133773803711,0.0000887122181801422
391,0.024874210357666,0.0000841479114455798
392,0.0249972343444824,0.0000693285808681707
393,0.0241923332214355,0.0000696476129663172
394,0.0234694480895996,0.0000798413950574917
395,0.0233974456787109,0.0000986419234753544
396,0.0230631828308105,0.0000688398296307294
397,0.0230545997619629,0.0000659657289858346
398,0.0228276252746582,0.0000426542765438342
399,0.0218100547790527,0.0000516527124907384
400,0.0217795372009277,0.000075492523967507
401,0.0214095115661621,0.0000801001271762856
402,0.0209107398986816,0.000111590083382548
403,0.0208535194396973,0.0000979502915207638
404,0.0206718444824219,0.0000767663397599344
405,0.020474910736084,0.0000669289831082702
406,0.0194215774536133,0.0000751998050658951
407,0.0194063186645508,0.0000666276492107718
408,0.0197181701660156,0.0000727594755708476
409,0.0188360214233398,0.0000700139205364236
410,0.0184464454650879,0.0000832528182618225
411,0.0187244415283203,0.0000727485372335188
412,0.0186991691589355,0.0000966227877557831
413,0.018157958984375,0.0000872989739544873
414,0.0173869132995605,0.0000673404824978246
415,0.0173745155334473,0.0000631444753923296
416,0.0171141624450684,0.0000596656487135997
417,0.0169415473937988,0.0000670630397481886
418,0.0168404579162598,0.0000662014168592206
419,0.016571044921875,0.0000736478039570651
420,0.016507625579834,0.00006348384359214
421,0.0169057846069336,0.0000573187222756839
422,0.0159196853637695,0.0000602062383305584
423,0.0156998634338379,0.0000500894681712468
424,0.0152339935302734,0.0000658328916851102
425,0.0150113105773926,0.0000472550194850027
426,0.0149965286254883,0.0000670240382678628
427,0.0158801078796387,0.0000579479777540457
428,0.0142016410827637,0.0000770914595058052
429,0.0152339935302734,0.0000707054807067341
430,0.0143675804138184,0.0000647480951675207
431,0.0135540962219238,0.0000778004795227785
432,0.0134172439575195,0.0000756910463670778
433,0.0139551162719727,0.0000850135262628164
434,0.0134668350219727,0.0000945509289805076
435,0.0128097534179687,0.0000845024868113046
436,0.0131049156188965,0.0000611319370671743
437,0.0129590034484863,0.0000516439078009121
438,0.0129776000976562,0.0000592660825282644
439,0.0125722885131836,0.00005076244540798
440,0.0127601623535156,0.0000433069481941813
441,0.0132942199707031,0.000061291662285119
442,0.011744499206543,0.0000523967884907015
443,0.0124921798706055,0.0000570971431728862
444,0.0117664337158203,0.0000655525368860858
445,0.0118889808654785,0.0000705493427003565
446,0.0118746757507324,0.0000673185318115232
447,0.0111846923828125,0.000049018071313
448,0.0114188194274902,0.0000581174323994893
449,0.0114922523498535,0.0000794259568728793
450,0.0110020637512207,0.0000626401430164703
451,0.0109333992004395,0.0000709750926695049
452,0.0107483863830566,0.0000720039898023476
453,0.0105423927307129,0.0000626365130716339
454,0.0105581283569336,0.0000549015403109349
455,0.0103964805603027,0.000059119154696897
456,0.0102047920227051,0.0000680876043682847
457,0.0104947090148926,0.0000602100147921165
458,0.0101318359375,0.0000418219081146122
459,0.00995159149169922,0.0000571210315261409
460,0.00950908660888672,0.0000558642764411756
461,0.00979900360107422,0.0000443355999644388
462,0.00943136215209961,0.0000404708076402649
463,0.00996732711791992,0.0000555029030028397
464,0.00959968566894531,0.0000618051595536028
465,0.00938081741333008,0.0000578920372420356
466,0.00878095626831055,0.0000690657102846526
467,0.00905752182006836,0.0000583127200210515
468,0.00889968872070313,0.000052754656547315
469,0.00860404968261719,0.0000482136367731566
470,0.0088963508605957,0.0000651140301777578
471,0.00878810882568359,0.0000731241870067523
472,0.00894308090209961,0.0000768048347156558
473,0.00842142105102539,0.0000579489586845277
474,0.00824737548828125,0.0000634784709661863
475,0.00865507125854492,0.0000550648858064123
476,0.00829410552978516,0.0000645335280255019
477,0.00807714462280273,0.0000727313450940294
478,0.00819921493530273,0.0000893405031481199
479,0.00797414779663086,0.0000706443543554862
480,0.00807905197143555,0.0000512849392189324
481,0.00786495208740234,0.0000756444704932514
482,0.00780010223388672,0.0000678366848931725
483,0.0080876350402832,0.0000608700889451066
484,0.00698232650756836,0.0000512904808407778
485,0.0145683288574219,0.0000433790794965521
486,0.00427579879760742,0.0000377116095715703
487,0.00671958923339844,0.000049835756810411
488,0.00679540634155273,0.0000686446796910404
489,0.00745487213134766,0.000055413730129462
490,0.00710058212280273,0.0000571657952827375
491,0.00711488723754883,0.0000647919761213408
492,0.00702619552612305,0.0000666651772682966
493,0.00714349746704102,0.0000571936306048502
494,0.00677347183227539,0.0000636983770459223
495,0.0069584846496582,0.0000586945674102649
496,0.006866455078125,0.0000697210284440846
497,0.00656890869140625,0.0000797544893440139
498,0.00690174102783203,0.0000557909663832786
499,0.00667762756347656,0.0000572343650450553
500,0.00629234313964844,0.0000492321376767742
501,0.00652837753295898,0.0000538192646872041
502,0.00648784637451172,0.0000402313249675256
503,0.00645256042480469,0.0000652883932528154
504,0.00618124008178711,0.0000874421063207252
505,0.00634384155273438,0.0000745499480137909
506,0.00600051879882813,0.0000594336919166926
507,0.00588035583496094,0.0000660277430550866
508,0.00616598129272461,0.0000780921849423035
509,0.00607538223266602,0.0000777887885531761
510,0.00599956512451172,0.0000603505196339469
511,0.00593185424804688,0.0000655455993755483
512,0.00590324401855469,0.0000706330884683333
513,0.0057682991027832,0.0000604982152927647
514,0.00579214096069336,0.0000545004221006834
515,0.00574016571044922,0.0000621042643990213
516,0.00563573837280273,0.0000610891490778008
517,0.00546169281005859,0.0000629244402769579
518,0.00551509857177734,0.0000673421707157949
519,0.00556468963623047,0.0000622377532921209
520,0.00535488128662109,0.0000743132009078146
521,0.00532245635986328,0.0000681910480671
522,0.00518703460693359,0.0000694678262766812
523,0.00539350509643555,0.0000674164104534999
524,0.00527143478393555,0.0000668286894458957
525,0.0052332878112793,0.0000596122736817031
526,0.00514078140258789,0.0000417933556292733
527,0.00510597229003906,0.0000507915516752433
528,0.00510072708129883,0.0000531400730350196
529,0.00504016876220703,0.0000807954096590592
530,0.0050358772277832,0.0000772005102361247
531,0.00493669509887695,0.0000777858655362261
532,0.00513458251953125,0.0000645352896723466
533,0.00501680374145508,0.0000460906959121482
534,0.00489568710327148,0.000054511893788123
535,0.0048828125,0.000049840319062154
536,0.00465250015258789,0.0000624401826777044
537,0.0049281120300293,0.0000789507564156339
538,0.00473594665527344,0.0000802688472636481
539,0.00461196899414063,0.0000630688122466557
540,0.0046839714050293,0.0000582424919104392
541,0.00446033477783203,0.000070088574375222
542,0.00458574295043945,0.0000480695847360038
543,0.0044856071472168,0.0000421077180705191
544,0.00451517105102539,0.0000614102579452444
545,0.00429105758666992,0.0000498859186316758
546,0.00438737869262695,0.0000397680474696131
547,0.00460243225097656,0.0000352641953604204
548,0.00426101684570313,0.0000379714803425465
549,0.0041508674621582,0.0000431010414234977
550,0.00413703918457031,0.0000523881088553264
551,0.00413322448730469,0.0000689338990851969
552,0.00415658950805664,0.0000340179117696594
553,0.00404453277587891,0.00005232839738959
554,0.00400972366333008,0.0000611058957722474
555,0.00425052642822266,0.0000511550938878638
556,0.00406932830810547,0.0000386171865082543
557,0.00395107269287109,0.0000473847554072184
558,0.00395345687866211,0.0000723127913155304
559,0.0039825439453125,0.0000565097300007925
560,0.00404262542724609,0.0000489554105897335
561,0.00382471084594727,0.000041732786996273
562,0.0037388801574707,0.0000555387367614972
563,0.00388622283935547,0.000050266191106577
564,0.00379085540771484,0.0000392805010349636
565,0.00368547439575195,0.0000413159517425179
566,0.003662109375,0.0000548424924557872
567,0.00384092330932617,0.0000513967641131178
568,0.00367879867553711,0.0000528977706226088
569,0.00395345687866211,0.0000481511097327428
570,0.00370979309082031,0.0000360075206143962
571,0.00384140014648437,0.0000363226616832984
572,0.00301313400268555,0.0000402729843735901
573,0.00383567810058594,0.0000364725881749654
574,0.00354576110839844,0.0000241468707903268
575,0.00312900543212891,0.000033297610798375
576,0.00383615493774414,0.0000298147175761454
577,0.00381278991699219,0.0000312246428370379
578,0.00314474105834961,0.000031576738435713
579,0.00334358215332031,0.0000299635341573225
580,0.00410032272338867,0.0000274088055862425
581,0.0041193962097168,0.0000267199053308905
582,0.00256061553955078,0.0000326198092829413
583,0.00237798690795898,0.000040339972671622
584,0.00415897369384766,0.0000316315958937886
585,0.00370597839355469,0.0000379220470671031
586,0.00265312194824219,0.0000331067183887818
587,0.00396251678466797,0.0000361084131250648
588,0.00284576416015625,0.0000412774107343697
589,0.00293540954589844,0.000036514644086984
590,0.00342273712158203,0.000030568757950771
591,0.00309276580810547,0.0000318911029953117
592,0.00414037704467773,0.0000463354716213477
593,0.00344419479370117,0.0000465826219913874
594,0.00324916839599609,0.0000417375540060546
595,0.00311279296875,0.0000398151888754809
596,0.00270795822143555,0.0000367791087253436
597,0.00347185134887695,0.0000421717920641049
598,0.00321531295776367,0.0000365504313253169
599,0.00338888168334961,0.0000428065935388114
600,0.0030970573425293,0.0000345904195349109
601,0.0029301643371582,0.0000448112777621538
602,0.00276327133178711,0.0000410599434971933
603,0.00285196304321289,0.0000392131524313427
604,0.0024409294128418,0.0000451990317800884
605,0.00320625305175781,0.000031283752053207
606,0.00260686874389648,0.0000449037832908384
607,0.00272798538208008,0.0000399569906967919
608,0.00245189666748047,0.000034449628430158
609,0.00251913070678711,0.0000313817181136326
610,0.00286006927490234,0.0000277227604092297
611,0.0021672248840332,0.0000251070725783977
612,0.00246906280517578,0.0000271598425355654
613,0.00267982482910156,0.0000345879544544711
614,0.00236797332763672,0.0000415799541203628
615,0.00245857238769531,0.0000389484315363069
616,0.00197362899780273,0.0000281439979412295
617,0.00234556198120117,0.000030571547113442
618,0.00223970413208008,0.0000312519379057748
619,0.00233030319213867,0.0000384697076937314
620,0.00259256362915039,0.0000488682485176241
621,0.00197792053222656,0.0000431049977647979
622,0.002471923828125,0.000044754158543977
623,0.00207710266113281,0.0000402906236713575
624,0.00213623046875,0.0000441248318163412
625,0.00186538696289062,0.0000428012815584548
626,0.00179100036621094,0.0000336812130156434
627,0.00201129913330078,0.0000300407409667969
628,0.00180339813232422,0.0000346232705034574
629,0.00205564498901367,0.0000385361430054775
630,0.00154209136962891,0.0000395825107094087
631,0.00168085098266602,0.0000380574606690119
632,0.0017390251159668,0.0000422061495550116
633,0.00169992446899414,0.0000345616493232169
634,0.00165700912475586,0.0000432057620623562
635,0.00176525115966797,0.0000370662303703213
636,0.00191497802734375,0.0000326363598248
637,0.00155210494995117,0.0000238966312662617
638,0.00159311294555664,0.000034082183973751
639,0.00142955780029297,0.0000482254252368095
640,0.00158214569091797,0.0000605423598398892
641,0.00167274475097656,0.0000428994467218112
642,0.00164031982421875,0.0000351980441796318
643,0.00162458419799805,0.0000389236129219413
644,0.00157594680786133,0.0000400479345679362
645,0.00159788131713867,0.0000548124261501819
646,0.00163459777832031,0.0000463649049872642
647,0.00148582458496094,0.0000301068955084121
648,0.00154304504394531,0.0000396929343909595
649,0.00133991241455078,0.000052932146335183
650,0.00127267837524414,0.0000332788270476158
651,0.00145673751831055,0.0000337065188468191
652,0.00127315521240234,0.0000520255344275889
653,0.00137233734130859,0.0000445428186346311
654,0.000695705413818359,0.0000349248633771876
655,0.00524139404296875,0.0000367481850147217
656,0.00526094436645508,0.0000307957074975348
657,-0.00771808624267578,0.0000427634145990595
658,0.00125885009765625,0.0000532106257570501
659,0.000706672668457031,0.0000449556549743986
660,0.000988483428955078,0.0000439259946934758
661,0.00105667114257812,0.0000455448135474129
662,0.00104618072509766,0.0000294502442261216
663,0.00100231170654297,0.0000342892005698143
664,0.00107717514038086,0.0000505391153770181
665,0.00112438201904297,0.0000448708579821004
666,0.00103139877319336,0.0000476515184418486
667,0.00106477737426758,0.0000366816107587192
668,0.000915050506591797,0.0000434497828211506
669,0.000751972198486328,0.0000338671892216255
670,0.000777721405029297,0.0000486105021784777
671,0.000897884368896484,0.0000360335589918423
672,0.000774383544921875,0.0000250889537198178
673,0.000543117523193359,0.000026515962133955
674,0.000722885131835938,0.0000297794254082826
675,0.000744342803955078,0.0000330371077055237
676,0.000685214996337891,0.0000369579560014668
677,0.000756740570068359,0.0000343314475383555
678,0.000814914703369141,0.0000435425698906644
679,0.000857353210449219,0.0000391304379461
680,0.000830650329589844,0.0000412484813458836
681,0.0009307861328125,0.0000436833328760218
682,0.000951290130615234,0.0000558123584304792
683,0.00101518630981445,0.0000425862569234968
684,0.00106477737426758,0.0000405430776236583
685,0.00103998184204102,0.0000436924407537663
686,0.000810146331787109,0.0000457316418547033
687,0.000714302062988281,0.0000461128898763145
688,0.0005645751953125,0.0000463722604096929
689,0.000525951385498047,0.000040780729586542
690,0.000398159027099609,0.0000460894626007767
691,0.00054931640625,0.000044703324635541
692,0.000669956207275391,0.000041367512915386
693,0.000790596008300781,0.0000296761703797929
694,0.000839710235595703,0.000030706054592608
695,0.000857830047607422,0.000033579798986025
696,0.00078582763671875,0.0000320165171796832
697,0.000826358795166016,0.000045154993461822
698,0.000557899475097656,0.0000346010995207716
699,0.00048828125,0.0000366537065625729
700,0.000429153442382813,0.0000255224833908346
701,0.000510215759277344,0.0000261359400911911
702,0.000689029693603516,0.0000381350498640675
703,0.000800132751464844,0.0000392761594487624
704,0.00070953369140625,0.0000347976796435184
705,0.000553131103515625,0.0000333223550192213
706,0.000528335571289063,0.0000373724449939914
707,0.00057220458984375,0.000035941946761837
708,0.00045013427734375,0.000026610653702202
709,0.000603199005126953,0.0000372146887280376
710,0.000656604766845703,0.0000453396669560139
711,0.000531673431396484,0.0000337537056369693
712,0.000420093536376953,0.0000251393144475832
713,0.000397682189941406,0.0000322755711652508
714,0.000475406646728516,0.0000408587122719631
715,0.000635623931884766,0.0000330328059427605
716,0.000547409057617188,0.0000371803053144537
717,0.000422000885009766,0.0000280448563032077
718,0.000406265258789063,0.000039997514678022
719,0.000339031219482422,0.0000354202074764801
720,0.000548362731933594,0.0000341979019772012
721,0.00066375732421875,0.0000379430266252929
722,0.000520229339599609,0.0000424485516180323
723,0.000262260437011719,0.0000466350641214796
724,0.000269412994384766,0.00002905431451252
725,0.000491142272949219,0.0000345007418897814
726,0.000615119934082031,0.0000353084956130283
727,0.000411033630371094,0.000049728423402724
728,0.000255107879638672,0.0000428537085108877
729,0.000242710113525391,0.0000364616768719786
730,0.00048065185546875,0.00004151017412548
731,0.000776290893554688,0.0000292876627713717
732,0.000279903411865234,0.0000479950279291031
733,0.0000920295715332031,0.0000491234853962849
734,0.000266075134277344,0.000042372153411393
735,0.000594139099121094,0.000042152917220164
736,0.000584602355957031,0.0000365636481794055
737,0.0000791549682617188,0.0000440190693010112
738,-0.0000281333923339844,0.000038965211635152
739,0.000648975372314453,0.0000475021721092692
740,0.000617504119873047,0.0000451486987669476
741,0.0000596046447753906,0.000048735463614087
742,-0.0000853538513183594,0.0000363875494575384
743,0.000424385070800781,0.0000471454278196233
744,0.000714302062988281,0.0000517560553983465
745,0.0000939369201660156,0.0000362137338110516
746,-0.000272274017333984,0.000031061283752036
747,0.000536918640136719,0.0000338495612080468
748,0.000690937042236328,0.0000330061224997331
749,0.0000581741333007813,0.0000381536775895382
750,-0.000201225280761719,0.0000328247925280057
751,0.000547885894775391,0.0000376844680657637
752,0.000477790832519531,0.0000454148280845096
753,-0.000285625457763672,0.0000521946136332389
754,-0.0000638961791992188,0.000037200939176118
755,0.000734806060791016,0.000031782189244238
756,0.000290393829345703,0.0000361508927003032
757,-0.000354766845703125,0.0000409774888584973
758,0.000330924987792969,0.0000406082206105124
759,0.000676631927490234,0.0000276149033264136
760,-0.000309467315673828,0.0000310438934955997
761,-0.000267505645751953,0.0000271959214682533
762,0.000596046447753906,0.0000409622269650141
763,0.000100612640380859,0.0000451109121523488
764,-0.000491619110107422,0.0000431899714440317
765,0.000551700592041016,0.0000421765094552658
766,0.000210762023925781,0.0000350556396654206
767,-0.000855922698974609,0.0000418157913661492
768,0.000267982482910156,0.0000493036708994735
769,0.000720500946044922,0.0000394962522753382
770,-0.000573158264160156,0.0000304434479455932
771,-0.000216007232666016,0.0000339376097119065
772,0.000569343566894531,0.0000389155799814116
773,-0.000563621520996094,0.0000433003848447666
774,-0.000485420227050781,0.0000404988889700663
775,0.000615119934082031,0.0000423708118624236
776,-0.000560283660888672,0.0000360509074619976
777,-0.000597953796386719,0.0000371282877438949
778,0.000628948211669922,0.0000479737047020177
779,-0.000451087951660156,0.0000406739580385897
780,-0.000471591949462891,0.0000381372856715249
781,0.000645637512207031,0.0000510371710214983
782,-0.000706672668457031,0.0000382652535132796
783,-0.000356674194335937,0.0000364647947202781
784,0.000477313995361328,0.0000445428186346311
785,-0.000829696655273438,0.0000494763073583896
786,-0.000136852264404297,0.0000447859004366605
787,0.000304222106933594,0.0000502797594506535
788,-0.000879764556884766,0.0000457502827236365
789,0.000170707702636719,0.0000294647168026628
790,0.0000286102294921875,0.0000413901794829043
791,-0.00101470947265625,0.0000332301106647278
792,0.000397205352783203,0.0000334670393855411
793,-0.00030517578125,0.0000499519640686333
794,-0.000540256500244141,0.0000432990720554976
795,0.000387191772460937,0.0000460857624686327
796,-0.0010991096496582,0.0000434131362118536
797,-0.000187873840332031,0.0000608962310791185
798,0.00000476837158203125,0.0000546899169282419
799,-0.000967979431152344,0.0000533855348839289
800,0.000211715698242187,0.0000395314972056629
801,-0.000685214996337891,0.0000358524787246217
802,-0.000572681427001953,0.0000344842619548121
803,0.000201702117919922,0.0000346585505664417
804,-0.00103425979614258,0.0000348939254312052
805,0.0000624656677246094,0.0000436208276279427
806,-0.000435352325439453,0.0000521750067488649
807,-0.000630855560302734,0.0000434458578772705
808,0.0000162124633789062,0.0000439466949748763
809,-0.00113582611083984,0.0000362592255134004
810,0.000034332275390625,0.0000486724390640436
811,-0.000587940216064453,0.0000570921651745356
812,-0.000636100769042969,0.0000446855191056618
813,-0.000121593475341797,0.0000438054806377371
814,-0.000854015350341797,0.0000389542689122677
815,-0.0000181198120117187,0.0000447947841359518
816,-0.00099945068359375,0.0000493128934343278
817,-0.000266551971435547,0.0000487646140620742
818,-0.000437736511230469,0.000050942413023642
819,-0.000809669494628906,0.0000437249534015122
820,-0.0000715255737304688,0.0000480955932193556
821,-0.000916004180908203,0.0000605517481445403
822,-0.0000805854797363281,0.0000431557386167299
823,-0.000878334045410156,0.0000408176506772534
824,-0.000285148620605469,0.0000464689982212267
825,-0.000478267669677734,0.0000657257366618737
826,-0.000594139099121094,0.0000608056192829445
827,-0.000219345092773437,0.0000497901113009156
828,-0.00083160400390625,0.0000479879212395062
829,-0.0000433921813964844,0.0000385840529229961
830,-0.000906944274902344,0.0000370271038497994
831,-0.000191211700439453,0.0000457751254072242
832,-0.000678062438964844,0.000044500685683176
833,-0.000264644622802734,0.0000307412075000468
834,-0.000454425811767578,0.000033778957159643
835,-0.000230312347412109,0.0000435738898514777
836,-0.000257968902587891,0.0000491443097474978
837,-0.000526905059814453,0.0000303401108276144
838,-0.000210762023925781,0.0000289037666576053
839,-0.000496387481689453,0.0000419372791148091
840,-0.000244140625,0.0000439466949748763
841,-0.000798702239990234,0.0000435817163247966
842,-0.0000805854797363281,0.0000484734933961888
843,-0.000620841979980469,0.0000534313004601724
844,-0.000185966491699219,0.000038370579770363
845,-0.000573158264160156,0.0000356688856139718
846,-0.000168323516845703,0.0000485461445015884
847,-0.000658988952636719,0.0000339986900120362
848,-0.000156879425048828,0.0000527428026579004
849,-0.00052642822265625,0.0000539553412883046
850,-0.000261306762695312,0.0000463771633765505
851,-0.000504970550537109,0.0000333240608399508
852,-0.000164508819580078,0.0000279418030565888
853,-0.000504016876220703,0.000029536492191292
854,-0.0001373291015625,0.0000324897258875049
855,-0.000591754913330078,0.0000435699760876173
856,-0.000370979309082031,0.0000502695835359324
857,-0.000589370727539063,0.0000396563995617746
858,-0.000280380249023437,0.0000294449358324055
859,-0.000654697418212891,0.0000476574825604799
860,-0.000234603881835937,0.0000504411679901424
861,-0.000554561614990234,0.0000462667209499475
862,-0.000372886657714844,0.0000459238992962673
863,-0.000516414642333984,0.0000390504596359492
864,-0.000219345092773437,0.0000395487485690002
865,-0.000655651092529297,0.0000506379958609249
866,-0.000225067138671875,0.0000451763888638573
867,-0.000496387481689453,0.0000556624414522684
868,-0.000324249267578125,0.0000467361232147619
869,-0.00040435791015625,0.0000389038927433731
870,-0.000413417816162109,0.0000518635766265058
871,-0.000593662261962891,0.0000392385122458006
872,-0.000308036804199219,0.0000415464469856003
873,-0.000403404235839844,0.0000597665495173778
874,-0.000422477722167969,0.0000750908767915032
875,-0.000332832336425781,0.0000746992461076573
876,-0.00048065185546875,0.0000552462716598344
877,-0.000255107879638672,0.0000486747747618669
878,-0.000391960144042969,0.0000434550155281993
879,-0.000262260437011719,0.0000542065494913012
880,-0.000395298004150391,0.0000449366844750627
881,-0.00029754638671875,0.0000428610033800376
882,-0.000451564788818359,0.0000479831828616878
883,-0.000349521636962891,0.000049491240828173
884,-0.000415802001953125,0.000049979267685905
885,-0.000329494476318359,0.0000670918523574187
886,-0.000328540802001953,0.0000407319145915142
887,-0.000436782836914063,0.000037962497262141
888,-0.000298976898193359,0.0000535343954119613
889,-0.000489711761474609,0.0000580312976504034
890,-0.000295162200927734,0.0000568157026733593
891,-0.000376224517822266,0.0000534238529217163
892,-0.000364780426025391,0.0000487820959696164
893,-0.000187873840332031,0.0000496494884396385
894,-0.000477313995361328,0.0000639335323867138
895,-0.000229835510253906,0.0000401188410231873
896,-0.000356197357177734,0.0000391079151562558
897,-0.000319004058837891,0.000049212505564984
898,-0.000242710113525391,0.0000409129338375313
899,-0.000308513641357422,0.0000552071592502169
900,-0.000174522399902344,0.0000467738121721416
901,-0.000312328338623047,0.0000566634244547034
902,-0.000210285186767578,0.0000600114292893058
903,-0.000238895416259766,0.0000521957026886391
904,-0.000192642211914062,0.000052982595227321
905,-0.000281810760498047,0.0000424967323523436
906,-0.000215053558349609,0.0000454973619151175
907,-0.000142574310302734,0.0000457179670535766
908,-0.000169754028320312,0.0000617536337759479
909,-0.0001220703125,0.0000462802336065328
910,-0.0000944137573242188,0.0000613509887718793
911,0.00000238418579101562,0.0000513082100085526
912,-0.00002288818359375,0.0000557155194177415
913,-0.000142574310302734,0.0000618400990238512
914,-0.000176429748535156,0.0000580401127542771
915,-0.0000629425048828125,0.0000526349175779545
916,0.000011444091796875,0.0000646004368335469
917,-0.0000882148742675781,0.0000609326246465105
918,-0.0000963211059570313,0.0000543217779523302
919,-0.000184059143066406,0.0000553459859029652
920,-0.000130176544189453,0.0000595340310478729
921,-0.0000548362731933594,0.0000661893947580743
922,0.000057220458984375,0.0000627543788008198
923,-0.0000147819519042969,0.0000591489538710957
924,-0.0000472068786621094,0.0000538192646872041
925,0.000107288360595703,0.0000499189522728603
926,-0.0000615119934082031,0.0000502876726273908
927,0.0000367164611816406,0.0000650581352974074
928,0.0000324249267578125,0.0000513713204427516
929,0.0000433921813964844,0.0000440577923557102
930,0.000147342681884766,0.0000640791791834862
931,0.0000195503234863281,0.0000566172595274505
932,0.000169754028320312,0.0000812975891265164
933,0.0000996589660644531,0.000079314232508976
934,0.000100135803222656,0.0000750651345488315
935,0.000133037567138672,0.0000700187916912808
936,0.000208377838134766,0.0000547158951728018
937,0.000166416168212891,0.0000730012616674429
938,0.000266075134277344,0.0000767693015956806
939,0.000226020812988281,0.0000754744505834875
940,0.000202178955078125,0.0000607682142478577
941,0.000458240509033203,0.0000561413741281248
942,0.00034332275390625,0.0000755346783795167
943,0.000504016876220703,0.0000848595997808298
944,0.000303745269775391,0.0000679689512767086
945,0.000416278839111328,0.0000690426614903232
946,0.000496864318847656,0.0000918279920693451
947,0.000500679016113281,0.0000852765633788141
948,0.000417709350585938,0.000101585341627946
949,0.000585556030273438,0.0000743499078504867
950,0.0006103515625,0.0000836465345411221
951,0.000595569610595703,0.0000789089861930371
952,0.000811100006103516,0.000081785565867022
953,0.000652790069580078,0.000101030980585153
954,0.000735759735107422,0.0000853272082126665
955,0.000931262969970703,0.000106800879220562
956,0.00112152099609375,0.000128526854269066
957,0.00122261047363281,0.0001464565568577
958,0.00112009048461914,0.0000995482509666434
959,0.000969886779785156,0.0000866033951884708
960,0.000943660736083984,0.0000731832421054529
961,0.00124406814575195,0.000108341767666406
962,0.00111961364746094,0.000126479651760605
963,0.00126504898071289,0.0000928792616589744
964,0.00110149383544922,0.0000777244567871094
965,0.00120735168457031,0.0000828050756697082
966,0.00108051300048828,0.000130990560895234
967,0.000943660736083984,0.000140229044591456
968,0.00101757049560547,0.000131499896444099
969,0.000987529754638672,0.0000877302622460084
970,0.000743389129638672,0.000111874980842225
971,0.000962734222412109,0.000158940633056638
972,0.000816822052001953,0.000166100938523182
973,0.000529289245605469,0.000115636697690727
974,0.000773906707763672,0.000135061968123745
975,0.000701427459716797,0.000172807259795451
976,0.000294208526611328,0.000145096462247154
977,0.000768661499023438,0.000147474563242262
978,0.000674724578857422,0.000177054972764702
979,0.000374317169189453,0.000151297958178301
980,0.000638484954833984,0.000121084719679778
981,0.000107288360595703,0.000151897896921838
982,0.000454902648925781,0.000194946519867074
983,-0.00000762939453125,0.000151240840217149
984,0.0000185966491699219,0.000126299752867515
985,0.0000619888305664063,0.000207484992743378
986,-0.000250339508056641,0.000159457653869188
987,-0.000206470489501953,0.000184505790389789
988,-0.000148296356201172,0.00016304205329736
989,-0.000383853912353516,0.000136054936202934
990,-0.00048828125,0.000205281581034312
991,-0.000573158264160156,0.000214243736452378
992,-0.000693321228027344,0.000232958255605571
993,-0.000630855560302734,0.000231823298932101
994,-0.000518321990966797,0.000189769207753526
995,-0.00043487548828125,0.000214171556909912
996,-0.00108432769775391,0.000186545132016989
997,-0.000815391540527344,0.000224581696007309
998,-0.00122308731079102,0.00024719856395764
999,-0.00103664398193359,0.000212063375017621
1000,-0.00109195709228516,0.000144964770131109
1001,-0.0012054443359375,0.000152998609909475
1002,-0.00109100341796875,0.000224719344563925
1003,-0.00154018402099609,0.000302950374393744
1004,-0.00113058090209961,0.000253440631742448
1005,-0.00166654586791992,0.000287744260882125
1006,-0.00140857696533203,0.000315808785495938
1007,-0.00126838684082031,0.000240144206780047
1008,-0.0019078254699707,0.000277615887564523
1009,-0.00129222869873047,0.00024370064428674
1010,-0.00163841247558594,0.000199466175638273
1011,-0.00175189971923828,0.000217721987535492
1012,-0.0017094612121582,0.000341495312764512
1013,-0.00170803070068359,0.000351449365426057
1014,-0.00195121765136719,0.000313270037348142
1015,-0.00205087661743164,0.000239973718408617
1016,-0.00218296051025391,0.000151951775224606
1017,-0.00210332870483398,0.000213529361890304
1018,-0.00205039978027344,0.000241564028915215
1019,-0.00188112258911133,0.000254600680251959
1020,-0.00224876403808594,0.000276789081610067
1021,-0.00270509719848633,0.00030367601943678
1022,-0.00281667709350586,0.000333780561130178
1023,-0.00216531753540039,0.000372700022554837
1024,-0.00195121765136719,0.000313566026889502
1025,-0.00240278244018555,0.000261564197561835
1026,-0.00321340560913086,0.000330835654653729
1027,-0.00290632247924805,0.000278505558554946
1028,-0.00302982330322266,0.000244713647235982
1029,-0.00301933288574219,0.00033850468015519
1030,-0.00266790390014648,0.000326847437912932
1031,-0.00290918350219727,0.000297772492794829
1032,-0.00301647186279297,0.000338375689132061
1033,-0.00356292724609375,0.000269125472726736
1034,-0.00390195846557617,0.000181579189139814
1035,-0.00366783142089844,0.000302866303246186
1036,-0.00349235534667969,0.000541472056546906
1037,-0.00331735610961914,0.000449503440416059
1038,-0.00327920913696289,0.000369080585309959
1039,-0.00367879867553711,0.000324181942401586
1040,-0.00376272201538086,0.000358348121151379
1041,-0.00374889373779297,0.000377549050613914
1042,-0.00392675399780273,0.000411589748573786
1043,-0.00404453277587891,0.000439344829884991
1044,-0.0046849250793457,0.000492952768932783
1045,-0.00409650802612305,0.000476524250359885
1046,-0.00384855270385742,0.00043571959105242
1047,-0.00379037857055664,0.000447459273707786
1048,-0.00495433807373047,0.000346497585260909
1049,-0.00553369522094727,0.000364388460988041
1050,-0.00464725494384766,0.000409747143915955
1051,-0.00504732131958008,0.000544821041102697
1052,-0.00435018539428711,0.000519331490324389
1053,-0.00594997406005859,0.000620589226811066
1054,-0.0048375129699707,0.00051858841612154
1055,-0.0050053596496582,0.000465017698903527
1056,-0.00442266464233398,0.0005077991117033
1057,-0.00587797164916992,0.000463983872444355
1058,-0.00566005706787109,0.000595251697935843
1059,-0.00606489181518555,0.000641186953260763
1060,-0.00560092926025391,0.000641538633601983
1061,-0.00740766525268555,0.000562470611658888
1062,-0.00809764862060547,0.000504391845629504
1063,-0.00651836395263672,0.00054242527043119
1064,-0.00651121139526367,0.000519905592744408
1065,-0.00633144378662109,0.000505515759720061
1066,-0.0059809684753418,0.000574121443457512
1067,-0.0071258544921875,0.000799286045390361
1068,-0.00640726089477539,0.000698933326016349
1069,-0.00681638717651367,0.000725595130194734
1070,-0.00621414184570313,0.000865490836632839
1071,-0.00628328323364258,0.000989588645452329
1072,-0.00673770904541016,0.000927857967978203
1073,-0.00523138046264648,0.000809686905456908
1074,-0.00554418563842773,0.000933471308543871
1075,-0.00632286071777344,0.00100887023879828
1076,-0.00610733032226563,0.00104720214457846
1077,-0.00654745101928711,0.000922052653215696
1078,-0.00669050216674805,0.00133411913089199
1079,-0.00743198394775391,0.000992232017569675
1080,-0.00855350494384766,0.00087130558213746
1081,-0.00600433349609375,0.000944428447267191
1082,-0.00697088241577148,0.00112118359116036
1083,-0.00676965713500977,0.00146916863633594
1084,-0.00901317596435547,0.00136762084224117
1085,-0.00769138336181641,0.00102917676112627
1086,-0.006988525390625,0.00110778703505621
1087,-0.00541162490844727,0.00134060424375138
1088,-0.00662803649902344,0.00117554586373592
1089,-0.00711345672607422,0.00111373482214843
1090,-0.00976896286010742,0.001710550408143
1091,-0.00994682312011719,0.00228306364770656
1092,-0.00863838195800781,0.00185577866827006
1093,-0.0118794441223145,0.00104739667043395
1094,-0.00892972946166992,0.0011589148234091
1095,-0.0120582580566406,0.00146229840706921
1096,-0.0111484527587891,0.00186728554432324
1097,-0.0112686157226562,0.00271370603200277
1098,-0.0077967643737793,0.00230261143428194
1099,-0.0154457092285156,0.00195199218323117
1100,-0.013878345489502,0.00204370959691116
