Wavelength (nm),Absorbance (AU),Std.Dev.
190,0.914643287658691,0.000323434816613676
191,0.823766708374023,0.000208656443403673
192,0.747522830963135,0.000138853801470771
193,0.682682514190674,0.0000880174747973481
194,0.631475448608398,0.0000445823618024776
195,0.589166164398193,0.0000491951766072423
196,0.555455684661865,0.0000631696763014401
197,0.528500556945801,0.0000470464562278833
198,0.505969047546387,0.0000437080498429527
199,0.487485408782959,0.0000609120976151919
200,0.471442699432373,0.0000666685878623832
201,0.457165718078613,0.0000692219100884299
202,0.444583892822266,0.0000579077452974711
203,0.433484077453613,0.0000536468293277684
204,0.423671722412109,0.0000541446440964138
205,0.414614200592041,0.0000552678745376044
206,0.40579891204834,0.0000757300879156009
207,0.397258281707764,0.000071379193882615
208,0.388818740844727,0.0000411083689692617
209,0.380657196044922,0.0000410260116568565
210,0.372560977935791,0.0000460141680977433
211,0.364312648773193,0.0000350945345667545
212,0.356081962585449,0.0000365636481794055
213,0.347846984863281,0.0000499462739363551
214,0.339795112609863,0.0000379744742304596
215,0.331523418426514,0.0000403110755869143
216,0.323531627655029,0.000059161445832023
217,0.315619468688965,0.0000481322176830768
218,0.307920455932617,0.0000453020396290345
219,0.300352573394775,0.0000392073535992017
220,0.293014526367187,0.0000297794254082826
221,0.285979747772217,0.0000363813002540304
222,0.279128074645996,0.0000369040847669482
223,0.272621631622314,0.0000403075501349265
224,0.266419410705566,0.0000257514140277808
225,0.260565280914307,0.0000274694004970585
226,0.254958629608154,0.0000364140966078532
227,0.249853134155273,0.0000483784138658442
228,0.244873523712158,0.0000363883305325164
229,0.240070343017578,0.0000392689224050775
230,0.235586643218994,0.0000509948303854836
231,0.231277942657471,0.000058449033127457
232,0.227287292480469,0.000063858804162577
233,0.223374843597412,0.0000436781275217521
234,0.219561576843262,0.000036721105405694
235,0.216001033782959,0.0000346216286953381
236,0.212649822235107,0.0000258697891749763
237,0.209461688995361,0.0000366118103916853
238,0.206427574157715,0.0000430059800431767
239,0.20354700088501,0.0000501722429320438
240,0.200723648071289,0.0000369287213681931
241,0.198078632354736,0.0000403674409454301
242,0.195577144622803,0.0000414930532795088
243,0.193020343780518,0.000055103067626666
244,0.190659046173096,0.0000355187674081854
245,0.188340187072754,0.0000461252152420162
246,0.186138153076172,0.0000426849165952738
247,0.184029102325439,0.0000324047600919326
248,0.18195915222168,0.0000322782128424073
249,0.179910182952881,0.000028767748177334
250,0.178050518035889,0.0000447579687596812
251,0.176156520843506,0.0000518208142913858
252,0.174342155456543,0.0000407967560505055
253,0.172687530517578,0.0000366730867291903
254,0.170925140380859,0.0000418157913661492
255,0.169332027435303,0.0000424505602404177
256,0.167728424072266,0.0000374855880871459
257,0.166162014007568,0.0000387340315150923
258,0.164487838745117,0.0000408127762211572
259,0.162961006164551,0.0000398487252729202
260,0.161358833312988,0.000034704442926271
261,0.159766674041748,0.0000388892787566272
262,0.158151149749756,0.0000520473819632714
263,0.156655311584473,0.000045027669981105
264,0.155024528503418,0.0000396649990196577
265,0.153480529785156,0.0000458061598149217
266,0.151764392852783,0.0000596189481739348
267,0.150217056274414,0.0000566965196160989
268,0.148494243621826,0.0000621719589729562
269,0.146854400634766,0.0000483360962637337
270,0.145211696624756,0.0000608560796109917
271,0.14368200302124,0.0000540469204341857
272,0.142070293426514,0.0000455535492462734
273,0.140307426452637,0.0000591133853797033
274,0.138730525970459,0.0000526370774465443
275,0.137083053588867,0.0000461818695556765
276,0.135536193847656,0.0000454135764183778
277,0.133832454681396,0.0000468551653848551
278,0.132078170776367,0.0000576480150593087
279,0.130443572998047,0.0000586606614705108
280,0.128744602203369,0.0000523794277816755
281,0.126998424530029,0.0000557247008563368
282,0.125299453735352,0.0000518284921803282
283,0.12355375289917,0.0000499326149733094
284,0.12175989151001,0.0000474446981957731
285,0.120096206665039,0.0000359917306116135
286,0.118233203887939,0.0000393029249235023
287,0.116483211517334,0.0000391079151562558
288,0.114764213562012,0.0000432360112944815
289,0.113015174865723,0.0000377214058715174
290,0.111256122589111,0.0000285824004567064
291,0.10955286026001,0.0000346027423029456
292,0.107785701751709,0.0000439518685218922
293,0.106185436248779,0.0000476694085591552
294,0.104543685913086,0.0000422101897741904
295,0.102951526641846,0.0000296042536132215
296,0.101402282714844,0.0000338529196326218
297,0.0998086929321289,0.0000510995038017991
298,0.098236083984375,0.0000642934943797423
299,0.0967550277709961,0.0000612322783183747
300,0.0953221321105957,0.0000382392482506577
301,0.0938940048217773,0.000043494240764585
302,0.0925374031066895,0.0000546867987096048
303,0.0911245346069336,0.0000449037832908384
304,0.0897235870361328,0.0000389528096502877
305,0.0883378982543945,0.0000440797203201216
306,0.0870018005371094,0.0000588280632613697
307,0.0857462882995606,0.0000559364742165103
308,0.0845708847045898,0.0000685717697610762
309,0.0831794738769531,0.0000720024108886719
310,0.0820679664611816,0.0000634766799898161
311,0.0808243751525879,0.0000506346281145412
312,0.0795841217041016,0.0000324100221710642
313,0.0786128044128418,0.0000452467962809618
314,0.0774321556091309,0.0000467154421674904
315,0.0761160850524902,0.0000641217449313411
316,0.0751361846923828,0.000053623513373266
317,0.0740680694580078,0.000066362645514325
318,0.0729207992553711,0.0000629912534417267
319,0.0718612670898438,0.0000428178793089714
320,0.0708298683166504,0.0000323353961863111
321,0.0697598457336426,0.000032603250339454
322,0.0687923431396484,0.0000531090429576103
323,0.0677556991577148,0.0000504727120300264
324,0.0668320655822754,0.0000674518142500191
325,0.0658869743347168,0.0000706717068902827
326,0.0647392272949219,0.0000652796861600686
327,0.0639247894287109,0.0000460906959121482
328,0.0630974769592285,0.0000486736069269656
329,0.062161922454834,0.0000357063165508438
330,0.0611948966979981,0.0000375371105270732
331,0.0603017807006836,0.0000582317551574967
332,0.0593953132629395,0.0000565258221892085
333,0.0585885047912598,0.0000477920731572192
334,0.057736873626709,0.0000607448244044749
335,0.0568628311157227,0.0000600010090759348
336,0.0560097694396973,0.0000569026785410788
337,0.0552759170532227,0.0000560542310709016
338,0.0543808937072754,0.0000354009442758839
339,0.0535960197448731,0.0000461313766899594
340,0.0528330802917481,0.0000641111061438446
341,0.0520920753479004,0.0000607120634850294
342,0.0512905120849609,0.0000632308366937667
343,0.0504674911499023,0.0000505222414439989
344,0.0498414039611816,0.0000587236140629115
345,0.0490899085998535,0.0000395199921131009
346,0.0483646392822266,0.0000355931071438113
347,0.0477070808410645,0.000053554566024205
348,0.0469603538513184,0.0000693957811821991
349,0.0463123321533203,0.0000537050749277701
350,0.0455436706542969,0.0000567936876759882
351,0.0448741912841797,0.0000714094490887961
352,0.0442662239074707,0.0000657655080895842
353,0.0435619354248047,0.0000767944725873621
354,0.0428552627563477,0.0000671985207746613
355,0.0421085357666016,0.0000754367837927441
356,0.0416312217712402,0.0000575443874093513
357,0.0410685539245606,0.0000792884276066181
358,0.0404033660888672,0.0000579626899681959
359,0.0398626327514648,0.0000705509541333623
360,0.0391535758972168,0.0000595941534345909
361,0.038449764251709,0.0000681476875684569
362,0.0378923416137695,0.0000537294134554342
363,0.037287712097168,0.0000550039464533923
364,0.0367441177368164,0.0000778691285216427
365,0.0361294746398926,0.0000879192554015792
366,0.0357246398925781,0.000108093840868371
367,0.0353488922119141,0.000071516036351437
368,0.0347170829772949,0.0000520539344359002
369,0.0341148376464844,0.0000627090720453644
370,0.033566951751709,0.0000700869523112226
371,0.0331263542175293,0.0000783029918457922
372,0.0328164100646973,0.0000837158216718127
373,0.0323085784912109,0.000109090504502907
374,0.0318832397460937,0.0000994797057192633
375,0.0316061973571777,0.0000648866577054353
376,0.0309228897094727,0.0000711638522927695
377,0.030545711517334,0.0000724149092159015
378,0.0304470062255859,0.0000725826980761923
379,0.0299620628356934,0.0000667299487477718
380,0.0292778015136719,0.0000634265121192795
381,0.0288653373718262,0.0000685087396504942
382,0.0285439491271973,0.0000784306535446518
383,0.0280590057373047,0.000114283851286217
384,0.0277318954467773,0.0000790629944113258
385,0.0272030830383301,0.000078930594240412
386,0.026667594909668,0.0000653510500745797
387,0.0264935493469238,0.000072361511674247
388,0.0263919830322266,0.0000832323323198647
389,0.0250439643859863,0.0000772593924887824
390,0.0253133773803711,0.0000887122181801422
391,0.024874210357666,0.0000841479114455798
392,0.0249972343444824,0.0000693285808681707
393,0.0241923332214355,0.0000696476129663172
394,0.0234694480895996,0.0000798413950574917
395,0.0233974456787109,0.0000986419234753544
396,0.0230631828308105,0.0000688398296307294
397,0.0230545997619629,0.0000659657289858346
398,0.0228276252746582,0.0000426542765438342
399,0.0218100547790527,0.0000516527124907384
400,0.0217795372009277,0.000075492523967507
401,0.0214095115661621,0.0000801001271762856
402,0.0209107398986816,0.000111590083382548
403,0.0208535194396973,0.0000979502915207638
404,0.0206718444824219,0.0000767663397599344
405,0.020474910736084,0.0000669289831082702
406,0.0194215774536133,0.0000751998050658951
407,0.0194063186645508,0.0000666276492107718
408,0.0197181701660156,0.0000727594755708476
409,0.0188360214233398,0.0000700139205364236
410,0.0184464454650879,0.0000832528182618225
411,0.0187244415283203,0.0000727485372335188
412,0.0186991691589355,0.0000966227877557831
413,0.018157958984375,0.0000872989739544873
414,0.0173869132995605,0.0000673404824978246
415,0.0173745155334473,0.0000631444753923296
416,0.0171141624450684,0.0000596656487135997
417,0.0169415473937988,0.0000670630397481886
418,0.0168404579162598,0.0000662014168592206
419,0.016571044921875,0.0000736478039570651
420,0.016507625579834,0.00006348384359214
421,0.0169057846069336,0.0000573187222756839
422,0.0159196853637695,0.0000602062383305584
423,0.0156998634338379,0.0000500894681712468
424,0.0152339935302734,0.0000658328916851102
425,0.0150113105773926,0.0000472550194850027
426,0.0149965286254883,0.0000670240382678628
427,0.0158801078796387,0.0000579479777540457
428,0.0142016410827637,0.0000770914595058052
429,0.0152339935302734,0.0000707054807067341
430,0.0143675804138184,0.0000647480951675207
431,0.0135540962219238,0.0000778004795227785
432,0.0134172439575195,0.0000756910463670778
433,0.0139551162719727,0.0000850135262628164
434,0.0134668350219727,0.0000945509289805076
435,0.0128097534179687,0.0000845024868113046
436,0.0131049156188965,0.0000611319370671743
437,0.0129590034484863,0.0000516439078009121
438,0.0129776000976562,0.0000592660825282644
439,0.0125722885131836,0.00005076244540798
440,0.0127601623535156,0.0000433069481941813
441,0.0132942199707031,0.000061291662285119
442,0.011744499206543,0.0000523967884907015
443,0.0124921798706055,0.0000570971431728862
444,0.0117664337158203,0.0000655525368860858
445,0.0118889808654785,0.0000705493427003565
446,0.0118746757507324,0.0000673185318115232
447,0.0111846923828125,0.000049018071313
448,0.0114188194274902,0.0000581174323994893
449,0.0114922523498535,0.0000794259568728793
450,0.0110020637512207,0.0000626401430164703
451,0.0109333992004395,0.0000709750926695049
452,0.0107483863830566,0.0000720039898023476
453,0.0105423927307129,0.0000626365130716339
454,0.0105581283569336,0.0000549015403109349
455,0.0103964805603027,0.000059119154696897
456,0.0102047920227051,0.0000680876043682847
457,0.0104947090148926,0.0000602100147921165
458,0.0101318359375,0.0000418219081146122
459,0.00995159149169922,0.0000571210315261409
460,0.00950908660888672,0.0000558642764411756
461,0.00979900360107422,0.0000443355999644388
462,0.00943136215209961,0.0000404708076402649
463,0.00996732711791992,0.0000555029030028397
464,0.00959968566894531,0.0000618051595536028
465,0.00938081741333008,0.0000578920372420356
466,0.00878095626831055,0.0000690657102846526
467,0.00905752182006836,0.0000583127200210515
468,0.00889968872070313,0.000052754656547315
469,0.00860404968261719,0.0000482136367731566
470,0.0088963508605957,0.0000651140301777578
471,0.00878810882568359,0.0000731241870067523
472,0.00894308090209961,0.0000768048347156558
473,0.00842142105102539,0.0000579489586845277
474,0.00824737548828125,0.0000634784709661863
475,0.00865507125854492,0.0000550648858064123
476,0.00829410552978516,0.0000645335280255019
477,0.00807714462280273,0.0000727313450940294
478,0.00819921493530273,0.0000893405031481199
479,0.00797414779663086,0.0000706443543554862
480,0.00807905197143555,0.0000512849392189324
481,0.00786495208740234,0.0000756444704932514
482,0.00780010223388672,0.0000678366848931725
483,0.0080876350402832,0.0000608700889451066
484,0.00698232650756836,0.0000512904808407778
485,0.0145683288574219,0.0000433790794965521
486,0.00427579879760742,0.0000377116095715703
487,0.00671958923339844,0.000049835756810411
488,0.00679540634155273,0.0000686446796910404
489,0.00745487213134766,0.000055413730129462
490,0.00710058212280273,0.0000571657952827375
491,0.00711488723754883,0.0000647919761213408
492,0.00702619552612305,0.0000666651772682966
493,0.00714349746704102,0.0000571936306048502
494,0.00677347183227539,0.0000636983770459223
495,0.0069584846496582,0.0000586945674102649
496,0.006866455078125,0.0000697210284440846
497,0.00656890869140625,0.0000797544893440139
498,0.00690174102783203,0.0000557909663832786
499,0.00667762756347656,0.0000572343650450553
500,0.00629234313964844,0.0000492321376767742
501,0.00652837753295898,0.0000538192646872041
502,0.00648784637451172,0.0000402313249675256
503,0.00645256042480469,0.0000652883932528154
504,0.00618124008178711,0.0000874421063207252
505,0.00634384155273438,0.0000745499480137909
506,0.00600051879882813,0.0000594336919166926
507,0.00588035583496094,0.0000660277430550866
508,0.00616598129272461,0.0000780921849423035
509,0.00607538223266602,0.0000777887885531761
510,0.00599956512451172,0.0000603505196339469
511,0.00593185424804688,0.0000655455993755483
512,0.00590324401855469,0.0000706330884683333
513,0.0057682991027832,0.0000604982152927647
514,0.00579214096069336,0.0000545004221006834
515,0.00574016571044922,0.0000621042643990213
516,0.00563573837280273,0.0000610891490778008
517,0.00546169281005859,0.0000629244402769579
518,0.00551509857177734,0.0000673421707157949
519,0.00556468963623047,0.0000622377532921209
520,0.00535488128662109,0.0000743132009078146
521,0.00532245635986328,0.0000681910480671
522,0.00518703460693359,0.0000694678262766812
523,0.00539350509643555,0.0000674164104534999
524,0.00527143478393555,0.0000668286894458957
525,0.0052332878112793,0.0000596122736817031
526,0.00514078140258789,0.0000417933556292733
527,0.00510597229003906,0.0000507915516752433
528,0.00510072708129883,0.0000531400730350196
529,0.00504016876220703,0.0000807954096590592
530,0.0050358772277832,0.0000772005102361247
531,0.00493669509887695,0.0000777858655362261
532,0.00513458251953125,0.0000645352896723466
533,0.00501680374145508,0.0000460906959121482
534,0.00489568710327148,0.000054511893788123
535,0.0048828125,0.000049840319062154
536,0.00465250015258789,0.0000624401826777044
537,0.0049281120300293,0.0000789507564156339
538,0.00473594665527344,0.0000802688472636481
539,0.00461196899414063,0.0000630688122466557
540,0.0046839714050293,0.0000582424919104392
541,0.00446033477783203,0.000070088574375222
542,0.00458574295043945,0.0000480695847360038
543,0.0044856071472168,0.0000421077180705191
544,0.00451517105102539,0.0000614102579452444
545,0.00429105758666992,0.0000498859186316758
546,0.00438737869262695,0.0000397680474696131
547,0.00460243225097656,0.0000352641953604204
548,0.00426101684570313,0.0000379714803425465
549,0.0041508674621582,0.0000431010414234977
550,0.00413703918457031,0.0000523881088553264
551,0.00413322448730469,0.0000689338990851969
552,0.00415658950805664,0.0000340179117696594
553,0.00404453277587891,0.00005232839738959
554,0.00400972366333008,0.0000611058957722474
555,0.00425052642822266,0.0000511550938878638
556,0.00406932830810547,0.0000386171865082543
557,0.00395107269287109,0.0000473847554072184
558,0.00395345687866211,0.0000723127913155304
559,0.0039825439453125,0.0000565097300007925
560,0.00404262542724609,0.0000489554105897335
561,0.00382471084594727,0.000041732786996273
562,0.0037388801574707,0.0000555387367614972
563,0.00388622283935547,0.000050266191106577
564,0.00379085540771484,0.0000392805010349636
565,0.00368547439575195,0.0000413159517425179
566,0.003662109375,0.0000548424924557872
567,0.00384092330932617,0.0000513967641131178
568,0.00367879867553711,0.0000528977706226088
569,0.00395345687866211,0.0000481511097327428
570,0.00370979309082031,0.0000360075206143962
571,0.00384140014648437,0.0000363226616832984
572,0.00301313400268555,0.0000402729843735901
573,0.00383567810058594,0.0000364725881749654
574,0.00354576110839844,0.0000241468707903268
575,0.00312900543212891,0.000033297610798375
576,0.00383615493774414,0.0000298147175761454
577,0.00381278991699219,0.0000312246428370379
578,0.00314474105834961,0.000031576738435713
579,0.00334358215332031,0.0000299635341573225
580,0.00410032272338867,0.0000274088055862425
581,0.0041193962097168,0.0000267199053308905
582,0.00256061553955078,0.0000326198092829413
583,0.00237798690795898,0.000040339972671622
584,0.00415897369384766,0.0000316315958937886
585,0.00370597839355469,0.0000379220470671031
586,0.00265312194824219,0.0000331067183887818
587,0.00396251678466797,0.0000361084131250648
588,0.00284576416015625,0.0000412774107343697
589,0.00293540954589844,0.000036514644086984
590,0.00342273712158203,0.000030568757950771
591,0.00309276580810547,0.0000318911029953117
592,0.00414037704467773,0.0000463354716213477
593,0.00344419479370117,0.0000465826219913874
594,0.00324916839599609,0.0000417375540060546
595,0.00311279296875,0.0000398151888754809
596,0.00270795822143555,0.0000367791087253436
597,0.00347185134887695,0.0000421717920641049
598,0.00321531295776367,0.0000365504313253169
599,0.00338888168334961,0.0000428065935388114
600,0.0030970573425293,0.0000345904195349109
601,0.0029301643371582,0.0000448112777621538
602,0.00276327133178711,0.0000410599434971933
603,0.00285196304321289,0.0000392131524313427
604,0.0024409294128418,0.0000451990317800884
605,0.00320625305175781,0.000031283752053207
606,0.00260686874389648,0.0000449037832908384
607,0.00272798538208008,0.0000399569906967919
608,0.00245189666748047,0.000034449628430158
609,0.00251913070678711,0.0000313817181136326
610,0.00286006927490234,0.0000277227604092297
611,0.0021672248840332,0.0000251070725783977
612,0.00246906280517578,0.0000271598425355654
613,0.00267982482910156,0.0000345879544544711
614,0.00236797332763672,0.0000415799541203628
615,0.00245857238769531,0.0000389484315363069
616,0.00197362899780273,0.0000281439979412295
617,0.00234556198120117,0.000030571547113442
618,0.00223970413208008,0.0000312519379057748
619,0.00233030319213867,0.0000384697076937314
620,0.00259256362915039,0.0000488682485176241
621,0.00197792053222656,0.0000431049977647979
622,0.002471923828125,0.000044754158543977
623,0.00207710266113281,0.0000402906236713575
624,0.00213623046875,0.0000441248318163412
