Wavelength (nm),Absorbance (AU),Std.Dev.
190,0.3337721824646,0.000130875947822698
191,0.325210094451904,0.0000788571027219296
192,0.317241191864014,0.0000778589080387852
193,0.310616493225098,0.0000743300271733779
194,0.303997993469238,0.0000483878127515254
195,0.296675682067871,0.000038858571494826
196,0.28964900970459,0.0000357675549189673
197,0.282297134399414,0.0000480979569295533
198,0.274441719055176,0.0000402108324894634
199,0.265961647033691,0.0000380813511049297
200,0.256369113922119,0.0000372436988904357
201,0.24635124206543,0.0000546618465568033
202,0.237007617950439,0.0000438754968420886
203,0.228654861450195,0.000043747048199915
204,0.22154712677002,0.0000366645607179365
205,0.215271472930908,0.0000452342315654156
206,0.209458827972412,0.0000614472721478367
207,0.20418643951416,0.000052016792843989
208,0.199243545532227,0.0000496597914197925
209,0.194711208343506,0.0000573880998287754
210,0.190352916717529,0.0000448429792232847
211,0.186136722564697,0.0000459906905341795
212,0.182162284851074,0.0000442123454228054
213,0.178385734558105,0.0000401577862074234
214,0.17473316192627,0.0000310219129215701
215,0.171222686767578,0.0000304411138802261
216,0.16793155670166,0.0000300587115956846
217,0.164661884307861,0.0000366001640552854
218,0.161508083343506,0.0000355531588639855
219,0.158440589904785,0.0000295566926898516
220,0.155524253845215,0.0000293501889453222
221,0.152562141418457,0.0000345789143227068
222,0.149590969085693,0.0000404637842628036
223,0.146726131439209,0.0000297837199327475
224,0.143948554992676,0.0000242443678558585
225,0.14128303527832,0.0000300856474125134
226,0.13853645324707,0.0000292337541356361
227,0.135985851287842,0.000042405008103322
228,0.133300304412842,0.000032113132904978
229,0.13062858581543,0.0000285236718210462
230,0.128177165985107,0.0000542935172491503
231,0.125723838806152,0.000048787921880087
232,0.123283386230469,0.0000432097088152894
233,0.120770931243896,0.0000388534512583693
234,0.118231773376465,0.0000239322854830353
235,0.115787982940674,0.000030799398921881
236,0.113625526428223,0.000035590711511492
237,0.111502647399902,0.0000353326359761208
238,0.109517574310303,0.0000317213209162863
239,0.107701778411865,0.000031002667135545
240,0.105915069580078,0.0000282543620434295
241,0.104257106781006,0.0000262606998691833
242,0.102719306945801,0.0000305501570253838
243,0.101147651672363,0.0000404173993624268
244,0.0995736122131348,0.0000301238831941358
245,0.098052978515625,0.000032912128308749
246,0.0965790748596191,0.0000305143183218873
247,0.0951418876647949,0.0000271347158544925
248,0.0936741828918457,0.0000345353241556739
249,0.0922322273254395,0.0000276133594587634
250,0.0908918380737305,0.0000283452518755451
251,0.0894546508789063,0.0000310896364454327
252,0.0881795883178711,0.0000361760422438993
253,0.087005615234375,0.0000410066094275109
254,0.0857381820678711,0.0000364242418755869
255,0.0846319198608398,0.0000415956726509534
256,0.0835204124450684,0.0000389141192686141
257,0.0824837684631348,0.0000294608581440812
258,0.0815420150756836,0.0000277908533885125
259,0.0805454254150391,0.0000441789048076648
260,0.079561710357666,0.000045007466875217
261,0.0785880088806152,0.0000432728079064987
262,0.0777239799499512,0.0000462433716065729
263,0.0769052505493164,0.0000690163105856889
264,0.0760512351989746,0.0000488926695607063
265,0.0752716064453125,0.0000388841625636792
266,0.0743966102600098,0.0000526834932036168
267,0.0737051963806152,0.000052792355760521
268,0.0728697776794434,0.0000538340493293922
269,0.0721378326416016,0.0000452643810232611
270,0.0713973045349121,0.0000579381675357977
271,0.0707411766052246,0.000058859941324542
272,0.0700068473815918,0.0000501269038274175
273,0.069307804107666,0.000038169317853513
274,0.0686807632446289,0.0000277898306695622
275,0.0680174827575684,0.0000373564710998354
276,0.0672721862792969,0.000042835134147193
277,0.0666050910949707,0.0000535174037367348
278,0.0659770965576172,0.0000679522229283278
279,0.0652284622192383,0.0000495394566572598
280,0.0645155906677246,0.0000462593487463235
281,0.0637092590332031,0.0000457949898509722
282,0.0628681182861328,0.0000611932762717816
283,0.0620036125183106,0.0000533439926155893
284,0.0611772537231445,0.0000406718616769429
285,0.0603914260864258,0.0000405094144501333
286,0.0594887733459473,0.0000358920938598251
287,0.0585908889770508,0.000034391001966166
288,0.0577831268310547,0.0000457055318657894
289,0.0568532943725586,0.0000386635258247554
290,0.0560240745544434,0.0000388746592761074
291,0.0551791191101074,0.0000351778513925992
292,0.0542535781860352,0.0000416441576457538
293,0.0534820556640625,0.0000444278164725963
294,0.0526881217956543,0.0000351503705863611
295,0.0518364906311035,0.0000407932725722043
296,0.0509862899780273,0.0000343645460734357
297,0.0501894950866699,0.0000464433027689916
298,0.0494050979614258,0.0000510794765606607
299,0.0486273765563965,0.0000404862547819659
300,0.0480108261108398,0.0000393982644139572
301,0.0472812652587891,0.000049890476296354
302,0.0465836524963379,0.0000508128110961756
303,0.0458979606628418,0.0000472429888782533
304,0.0452218055725098,0.0000469944731812169
305,0.0444660186767578,0.0000512305996025933
306,0.0438246726989746,0.0000546233563231317
307,0.0431904792785645,0.0000485637050536193
308,0.042691707611084,0.0000566533918009916
309,0.0420889854431152,0.0000492367558595785
310,0.04150390625,0.0000497969607946498
311,0.0407829284667969,0.0000507064248583162
312,0.0401902198791504,0.0000391485920478005
313,0.0397343635559082,0.0000466777060804703
314,0.039146900177002,0.0000489321825515167
315,0.0384540557861328,0.000053652126995221
316,0.0380301475524902,0.0000433869411112897
317,0.0375208854675293,0.0000432570417627012
318,0.0368051528930664,0.0000465240121161304
319,0.0362358093261719,0.0000385213895045518
320,0.0358366966247559,0.0000379295410985711
321,0.0352177619934082,0.0000377485208187385
322,0.0347318649291992,0.0000515579832771495
323,0.034186840057373,0.0000475547955095844
324,0.0337300300598145,0.0000489774670223573
325,0.0332255363464355,0.0000608560796109917
326,0.0326547622680664,0.0000530662130772908
327,0.0322575569152832,0.0000508262335172328
328,0.0317544937133789,0.0000398394520724304
329,0.0313124656677246,0.0000490829683103902
330,0.0308365821838379,0.0000467470683004283
331,0.0303807258605957,0.0000568137016624698
332,0.0298328399658203,0.0000524943354995018
333,0.0293893814086914,0.0000545348299236137
334,0.0289955139160156,0.0000586742261975902
335,0.0285072326660156,0.0000623344907707554
336,0.0280518531799316,0.0000728063355458031
337,0.0276808738708496,0.0000587671571228969
338,0.0271906852722168,0.0000509357175628753
339,0.0268154144287109,0.0000490980214168468
340,0.0263609886169434,0.0000564181183887748
341,0.0259189605712891,0.0000514973092843902
342,0.0255017280578613,0.0000552946092642415
343,0.025151252746582,0.0000672965739653832
344,0.0247659683227539,0.0000615600280101654
345,0.0243730545043945,0.0000454398541667993
346,0.0239353179931641,0.0000435517072058885
347,0.0235342979431152,0.0000618878789654424
348,0.0231218338012695,0.000064677823717288
349,0.0227141380310059,0.000059797927278945
350,0.0223355293273926,0.0000574158273772459
351,0.0220284461975098,0.0000665251923621952
352,0.0216813087463379,0.0000551948022047923
353,0.0213885307312012,0.0000650703664051761
354,0.0209660530090332,0.0000644047976560045
355,0.0204977989196777,0.0000728796889287674
356,0.0201749801635742,0.000056324339380251
357,0.0199317932128906,0.0000745087623009667
358,0.0196022987365723,0.000044703324635541
359,0.0193290710449219,0.0000493105879623223
360,0.0189480781555176,0.0000674703516816753
361,0.0185956954956055,0.0000614898109360039
362,0.0183372497558594,0.0000610742592721862
363,0.0180201530456543,0.0000641908540711389
364,0.017789363861084,0.0000665559459776889
365,0.0174546241760254,0.0000573514392928529
366,0.017366886138916,0.0000852552302377619
367,0.0171241760253906,0.0000610332935764282
368,0.0167708396911621,0.0000468988192751172
369,0.0165319442749023,0.0000502707142948437
370,0.0161538124084473,0.000058341956783992
371,0.0160136222839355,0.0000658432522714067
372,0.0160021781921387,0.0000730495228524952
373,0.0158610343933105,0.0000984388708795447
374,0.0155978202819824,0.0000857206805228408
375,0.0155611038208008,0.000056135298769738
376,0.0151996612548828,0.0000521379514054931
377,0.0151433944702148,0.0000698806441548323
378,0.0153069496154785,0.0000689174049593691
379,0.0150284767150879,0.0000957979973080843
380,0.0146493911743164,0.0000582229690687717
381,0.0143046379089355,0.0000609102311784089
382,0.0144186019897461,0.0000862047204885623
383,0.0140194892883301,0.0000805106746930844
384,0.013885498046875,0.0000696981963600541
385,0.0135860443115234,0.0000736894708688783
386,0.0133652687072754,0.000104654622191762
387,0.0134506225585937,0.0000831940783979965
388,0.0133991241455078,0.0000805657266638733
389,0.012331485748291,0.0000732484581369052
390,0.0127687454223633,0.0000811254031466368
391,0.0125327110290527,0.0000668031670501056
392,0.0128493309020996,0.0000613027903747108
393,0.012298583984375,0.000070798677072005
394,0.0118427276611328,0.0000971718786162259
395,0.0119709968566895,0.00011111226678102
396,0.0117015838623047,0.000100203899662504
397,0.0119104385375977,0.0000708099166139472
398,0.0118813514709473,0.0000595063352468893
399,0.0111417770385742,0.0000738743728094422
400,0.0110931396484375,0.0000806193308862384
401,0.0108070373535156,0.0000762089613618141
402,0.0105414390563965,0.0000764993049547374
403,0.0107226371765137,0.0000605217004433348
404,0.0105738639831543,0.0000604841198253218
405,0.0106410980224609,0.0000581780416707881
406,0.00946855545043945,0.0000555888652169771
407,0.0096278190612793,0.0000654848648075214
408,0.0100293159484863,0.0000964555651675225
409,0.00935506820678711,0.000085703437571186
410,0.00912809371948242,0.0000875668306532077
411,0.00935649871826172,0.0000781198403025528
412,0.00960159301757813,0.0000702036451255026
413,0.00926542282104492,0.0000801455321978169
414,0.0085139274597168,0.0000779975003455823
415,0.00868797302246094,0.0000628792560570047
416,0.00859737396240234,0.0000575898091406171
417,0.00847578048706055,0.0000730168332769431
418,0.00859308242797852,0.0000605423598398892
419,0.00834035873413086,0.0000652744613469213
420,0.00832223892211914,0.0000542715265281126
421,0.00902462005615234,0.0000523891938883894
422,0.00795936584472656,0.0000437418504278774
423,0.00795984268188477,0.0000434994681236286
424,0.00757646560668945,0.0000563374576592881
425,0.00743579864501953,0.0000551236954369294
426,0.00743341445922852,0.000107257626687923
427,0.00850200653076172,0.0000670715153298652
428,0.00678443908691406,0.0000501235017412989
429,0.00814056396484375,0.0000673759261919577
430,0.00734090805053711,0.000060631490040788
431,0.00661087036132813,0.0000547750795007289
432,0.00656604766845703,0.0000658933054738033
433,0.00730752944946289,0.0000785986180654127
434,0.00673818588256836,0.0000745606220775218
435,0.00607109069824219,0.0000476348149370367
436,0.00662040710449219,0.0000466033619799447
437,0.00656747817993164,0.0000506043083114412
438,0.00673770904541016,0.0000646936414486275
439,0.00638055801391602,0.000064134154619579
440,0.00655460357666016,0.0000495669875017823
441,0.00739908218383789,0.0000625602355766373
442,0.00571489334106445,0.0000498129392840052
443,0.00671100616455078,0.0000574821211468492
444,0.00609302520751953,0.0000555141675336807
445,0.00621843338012695,0.0000566222792775714
446,0.00625944137573242,0.0000592833442151001
447,0.005767822265625,0.0000521292286731713
448,0.00590324401855469,0.0000567986918337588
449,0.00599908828735352,0.0000744522856172365
450,0.00558185577392578,0.0000545410835593116
451,0.00556468963623047,0.0000745072364669802
452,0.00536727905273438,0.0000686430235072006
453,0.00520610809326172,0.0000694367250651536
454,0.00538396835327148,0.0000550535293478836
455,0.00527143478393555,0.0000592296246688566
456,0.00521564483642578,0.000077680563673212
457,0.00558900833129883,0.0000608794267101983
458,0.00514745712280273,0.0000545983751763594
459,0.00494003295898438,0.0000541183916370791
460,0.00459861755371094,0.0000542254218133145
461,0.00485849380493164,0.0000506379958609249
462,0.00455951690673828,0.0000482254252368095
463,0.00524139404296875,0.0000503272198477115
464,0.00488805770874023,0.0000554957334745526
465,0.00460910797119141,0.0000599422430860881
466,0.00414228439331055,0.0000710135251037114
467,0.00445079803466797,0.0000735566718989321
468,0.0043950080871582,0.0000581975795837111
469,0.00409841537475586,0.0000469024552652979
470,0.00434684753417969,0.0000620749682056822
471,0.00439596176147461,0.0000672238930696091
472,0.00455236434936523,0.0000659760687119598
473,0.00420427322387695,0.0000649199387554837
474,0.00389623641967773,0.0000710279319052331
475,0.00448989868164063,0.000066661766499715
476,0.00396394729614258,0.000062443824035496
477,0.00382328033447266,0.0000620364959564299
478,0.00403404235839844,0.0000832951399090894
479,0.00393247604370117,0.000063378098349352
480,0.00402355194091797,0.0000652744613469213
481,0.00372982025146484,0.0000716542040998546
482,0.00366020202636719,0.0000789752321369384
483,0.00420427322387695,0.0000610202532693725
484,0.00303554534912109,0.000044989781715359
485,0.0110259056091309,0.0000427674021736675
486,0.000174045562744141,0.0000358136133778103
487,0.00282144546508789,0.0000541761302554821
488,0.0030360221862793,0.0000726734871407406
489,0.00372171401977539,0.0000590469977157732
490,0.00327014923095703,0.000062277926713328
491,0.00329875946044922,0.0000614583720616075
492,0.00347614288330078,0.0000713919344795719
493,0.00360012054443359,0.000057900873547579
494,0.00313663482666016,0.0000527578889640054
495,0.00342416763305664,0.0000571638065267911
496,0.00345039367675781,0.0000699440633709293
497,0.00298881530761719,0.0000639761950388863
498,0.00339794158935547,0.0000498779417163752
499,0.00323152542114258,0.0000617941219323783
500,0.00291967391967773,0.0000705960593237342
501,0.00311708450317383,0.0000555581796946192
502,0.0031280517578125,0.0000495543710966743
503,0.00310802459716797,0.0000552750736206514
504,0.00286960601806641,0.000087092972235343
505,0.00313329696655273,0.0000773241111779194
506,0.00277423858642578,0.0000687059304272706
507,0.00266695022583008,0.0000582346835591626
508,0.00298786163330078,0.0000555080235275157
509,0.00288867950439453,0.0000653771393606502
510,0.00294733047485352,0.0000634516010126877
511,0.00281858444213867,0.0000620108345299105
512,0.00284481048583984,0.0000810202321031365
513,0.00285243988037109,0.0000614842640674765
514,0.00284767150878906,0.0000633942403808037
515,0.00275659561157227,0.0000761462809169159
516,0.00272607803344727,0.0000686363983722072
517,0.00263833999633789,0.0000597694027218471
518,0.0026545524597168,0.0000473475527670918
519,0.00268936157226562,0.0000523522901484999
520,0.00253391265869141,0.0000787041361054168
521,0.00255918502807617,0.000053197804949116
522,0.00247907638549805,0.0000402214333506228
523,0.00268268585205078,0.0000609279600193862
524,0.00249767303466797,0.0000618584802919871
525,0.00258970260620117,0.000041736873037992
526,0.00251436233520508,0.0000283858320708052
527,0.00249958038330078,0.0000438041829859368
528,0.00260305404663086,0.0000578262134149029
529,0.00243139266967773,0.0000839720931193543
530,0.00249242782592773,0.0000736925563695965
531,0.00251913070678711,0.0000679070358038413
532,0.00264120101928711,0.0000622706243826805
533,0.00258064270019531,0.0000513347922795745
534,0.00243234634399414,0.0000645546646147554
535,0.00231409072875977,0.0000550132466501218
536,0.00226020812988281,0.0000537801714247513
537,0.00258874893188477,0.0000703928583659902
538,0.00243902206420898,0.0000575038725823829
539,0.00230073928833008,0.0000705251667869045
540,0.00228357315063477,0.0000477920731572192
541,0.00230646133422852,0.0000770354004926849
542,0.00228548049926758,0.0000595970148925156
543,0.00223636627197266,0.0000436130081732544
544,0.0023350715637207,0.0000572770554073154
545,0.00212526321411133,0.0000527309461037376
546,0.00217437744140625,0.0000499508260940328
547,0.00251245498657227,0.0000532458670612252
548,0.00217103958129883,0.0000469847955713158
549,0.00203275680541992,0.0000449341544700231
550,0.00208854675292969,0.0000374256420672935
551,0.00211000442504883,0.0000573633317635444
552,0.00211954116821289,0.0000377590602619661
553,0.00208806991577148,0.0000500315579704904
554,0.00197267532348633,0.0000589516152646565
555,0.00216913223266602,0.0000611895604946114
556,0.00211095809936523,0.0000586063711659873
557,0.00205659866333008,0.0000547730039402234
558,0.00199365615844727,0.0000730479665377605
559,0.00203752517700195,0.000055631796513285
560,0.00213050842285156,0.0000402002288328409
561,0.0019536018371582,0.0000358342410560856
562,0.00187778472900391,0.0000388834316240191
563,0.00205612182617187,0.0000408760988108527
564,0.00195550918579102,0.0000469375886492606
565,0.00184822082519531,0.0000493186566428362
566,0.00188302993774414,0.0000616873231078958
567,0.00208520889282227,0.0000539700886534896
568,0.00190496444702148,0.0000488170410033271
569,0.0022130012512207,0.0000482890332115695
570,0.00198125839233398,0.0000354242193247953
571,0.00217390060424805,0.0000366901328079043
572,0.00129127502441406,0.0000426036055709427
573,0.00224494934082031,0.0000333990307003736
574,0.00196599960327148,0.000028580411631567
575,0.00150537490844727,0.000041497162926751
576,0.0023341178894043,0.0000308519537278311
577,0.0022273063659668,0.0000304784374767363
578,0.0016169548034668,0.0000260062107506244
579,0.00175952911376953,0.0000342062119187564
580,0.00258255004882812,0.0000323793146540927
581,0.00266265869140625,0.0000306263490253441
582,0.0010523796081543,0.0000257337488471543
583,0.000883579254150391,0.0000326529019778055
584,0.00272417068481445,0.0000327953400388736
585,0.00230932235717773,0.0000379744742304596
586,0.00124883651733398,0.0000368917602966343
587,0.00258255004882812,0.0000419393122238549
588,0.00137710571289062,0.0000394285513609648
589,0.00157785415649414,0.00003515683859094
590,0.00208663940429687,0.000036718783367093
591,0.00169229507446289,0.0000290298485411293
592,0.0027928352355957,0.0000300795062793172
593,0.00209379196166992,0.0000373762472958859
594,0.00192594528198242,0.0000396657155569934
595,0.00174283981323242,0.0000418334595326241
596,0.00134420394897461,0.0000442624589743567
597,0.00221633911132812,0.0000311417014497321
598,0.00191116333007812,0.0000249759820343166
599,0.00213098526000977,0.0000395243069152734
600,0.00179052352905273,0.0000374127297323857
601,0.00166940689086914,0.000042851718785593
602,0.00147771835327148,0.0000334508998425305
603,0.00157833099365234,0.0000356561342021374
604,0.00116872787475586,0.0000364429641805372
605,0.00202226638793945,0.0000329207628101198
606,0.00132608413696289,0.0000320635318316085
607,0.00147008895874023,0.0000330095667366724
608,0.001220703125,0.0000286117195695038
609,0.00128793716430664,0.0000342045500919563
610,0.00164270401000977,0.0000335111710182459
611,0.000980377197265625,0.0000347805232389746
612,0.00129556655883789,0.0000466898823441652
613,0.00152778625488281,0.0000344067005275889
614,0.00129604339599609,0.0000339811302157308
615,0.00139951705932617,0.0000473643575778311
616,0.000896453857421875,0.0000390664683967445
617,0.00121259689331055,0.0000405430776236583
618,0.00106716156005859,0.0000423439719573692
619,0.0011138916015625,0.0000383001470900832
620,0.00140666961669922,0.0000395939976355283
621,0.000777244567871094,0.0000456507767981547
