Wavelength (nm),Absorbance (AU),Std.Dev.
190,0.3337721824646,0.000130875947822698
191,0.325210094451904,0.0000788571027219296
192,0.317241191864014,0.0000778589080387852
193,0.310616493225098,0.0000743300271733779
194,0.303997993469238,0.0000483878127515254
195,0.296675682067871,0.000038858571494826
196,0.28964900970459,0.0000357675549189673
197,0.282297134399414,0.0000480979569295533
198,0.274441719055176,0.0000402108324894634
199,0.265961647033691,0.0000380813511049297
200,0.256369113922119,0.0000372436988904357
201,0.24635124206543,0.0000546618465568033
202,0.237007617950439,0.0000438754968420886
203,0.228654861450195,0.000043747048199915
204,0.22154712677002,0.0000366645607179365
205,0.215271472930908,0.0000452342315654156
206,0.209458827972412,0.0000614472721478367
207,0.20418643951416,0.000052016792843989
208,0.199243545532227,0.0000496597914197925
209,0.194711208343506,0.0000573880998287754
210,0.190352916717529,0.0000448429792232847
211,0.186136722564697,0.0000459906905341795
212,0.182162284851074,0.0000442123454228054
213,0.178385734558105,0.0000401577862074234
214,0.17473316192627,0.0000310219129215701
215,0.171222686767578,0.0000304411138802261
216,0.16793155670166,0.0000300587115956846
217,0.164661884307861,0.0000366001640552854
218,0.161508083343506,0.0000355531588639855
219,0.158440589904785,0.0000295566926898516
220,0.155524253845215,0.0000293501889453222
221,0.152562141418457,0.0000345789143227068
222,0.149590969085693,0.0000404637842628036
223,0.146726131439209,0.0000297837199327475
224,0.143948554992676,0.0000242443678558585
225,0.14128303527832,0.0000300856474125134
226,0.13853645324707,0.0000292337541356361
227,0.135985851287842,0.000042405008103322
228,0.133300304412842,0.000032113132904978
229,0.13062858581543,0.0000285236718210462
230,0.128177165985107,0.0000542935172491503
231,0.125723838806152,0.000048787921880087
232,0.123283386230469,0.0000432097088152894
233,0.120770931243896,0.0000388534512583693
234,0.118231773376465,0.0000239322854830353
235,0.115787982940674,0.000030799398921881
236,0.113625526428223,0.000035590711511492
237,0.111502647399902,0.0000353326359761208
238,0.109517574310303,0.0000317213209162863
239,0.107701778411865,0.000031002667135545
240,0.105915069580078,0.0000282543620434295
241,0.104257106781006,0.0000262606998691833
242,0.102719306945801,0.0000305501570253838
243,0.101147651672363,0.0000404173993624268
244,0.0995736122131348,0.0000301238831941358
245,0.098052978515625,0.000032912128308749
246,0.0965790748596191,0.0000305143183218873
247,0.0951418876647949,0.0000271347158544925
248,0.0936741828918457,0.0000345353241556739
249,0.0922322273254395,0.0000276133594587634
250,0.0908918380737305,0.0000283452518755451
251,0.0894546508789063,0.0000310896364454327
252,0.0881795883178711,0.0000361760422438993
253,0.087005615234375,0.0000410066094275109
254,0.0857381820678711,0.0000364242418755869
255,0.0846319198608398,0.0000415956726509534
256,0.0835204124450684,0.0000389141192686141
257,0.0824837684631348,0.0000294608581440812
258,0.0815420150756836,0.0000277908533885125
259,0.0805454254150391,0.0000441789048076648
260,0.079561710357666,0.000045007466875217
261,0.0785880088806152,0.0000432728079064987
262,0.0777239799499512,0.0000462433716065729
263,0.0769052505493164,0.0000690163105856889
264,0.0760512351989746,0.0000488926695607063
265,0.0752716064453125,0.0000388841625636792
266,0.0743966102600098,0.0000526834932036168
267,0.0737051963806152,0.000052792355760521
268,0.0728697776794434,0.0000538340493293922
269,0.0721378326416016,0.0000452643810232611
270,0.0713973045349121,0.0000579381675357977
271,0.0707411766052246,0.000058859941324542
272,0.0700068473815918,0.0000501269038274175
273,0.069307804107666,0.000038169317853513
274,0.0686807632446289,0.0000277898306695622
275,0.0680174827575684,0.0000373564710998354
276,0.0672721862792969,0.000042835134147193
277,0.0666050910949707,0.0000535174037367348
278,0.0659770965576172,0.0000679522229283278
279,0.0652284622192383,0.0000495394566572598
280,0.0645155906677246,0.0000462593487463235
281,0.0637092590332031,0.0000457949898509722
282,0.0628681182861328,0.0000611932762717816
283,0.0620036125183106,0.0000533439926155893
284,0.0611772537231445,0.0000406718616769429
285,0.0603914260864258,0.0000405094144501333
286,0.0594887733459473,0.0000358920938598251
287,0.0585908889770508,0.000034391001966166
288,0.0577831268310547,0.0000457055318657894
289,0.0568532943725586,0.0000386635258247554
290,0.0560240745544434,0.0000388746592761074
291,0.0551791191101074,0.0000351778513925992
292,0.0542535781860352,0.0000416441576457538
293,0.0534820556640625,0.0000444278164725963
294,0.0526881217956543,0.0000351503705863611
295,0.0518364906311035,0.0000407932725722043
296,0.0509862899780273,0.0000343645460734357
297,0.0501894950866699,0.0000464433027689916
298,0.0494050979614258,0.0000510794765606607
299,0.0486273765563965,0.0000404862547819659
300,0.0480108261108398,0.0000393982644139572
301,0.0472812652587891,0.000049890476296354
302,0.0465836524963379,0.0000508128110961756
303,0.0458979606628418,0.0000472429888782533
304,0.0452218055725098,0.0000469944731812169
305,0.0444660186767578,0.0000512305996025933
306,0.0438246726989746,0.0000546233563231317
307,0.0431904792785645,0.0000485637050536193
308,0.042691707611084,0.0000566533918009916
309,0.0420889854431152,0.0000492367558595785
310,0.04150390625,0.0000497969607946498
311,0.0407829284667969,0.0000507064248583162
312,0.0401902198791504,0.0000391485920478005
313,0.0397343635559082,0.0000466777060804703
314,0.039146900177002,0.0000489321825515167
315,0.0384540557861328,0.000053652126995221
316,0.0380301475524902,0.0000433869411112897
317,0.0375208854675293,0.0000432570417627012
318,0.0368051528930664,0.0000465240121161304
319,0.0362358093261719,0.0000385213895045518
320,0.0358366966247559,0.0000379295410985711
321,0.0352177619934082,0.0000377485208187385
322,0.0347318649291992,0.0000515579832771495
323,0.034186840057373,0.0000475547955095844
324,0.0337300300598145,0.0000489774670223573
325,0.0332255363464355,0.0000608560796109917
326,0.0326547622680664,0.0000530662130772908
327,0.0322575569152832,0.0000508262335172328
328,0.0317544937133789,0.0000398394520724304
329,0.0313124656677246,0.0000490829683103902
330,0.0308365821838379,0.0000467470683004283
331,0.0303807258605957,0.0000568137016624698
332,0.0298328399658203,0.0000524943354995018
333,0.0293893814086914,0.0000545348299236137
334,0.0289955139160156,0.0000586742261975902
335,0.0285072326660156,0.0000623344907707554
336,0.0280518531799316,0.0000728063355458031
337,0.0276808738708496,0.0000587671571228969
338,0.0271906852722168,0.0000509357175628753
339,0.0268154144287109,0.0000490980214168468
340,0.0263609886169434,0.0000564181183887748
341,0.0259189605712891,0.0000514973092843902
342,0.0255017280578613,0.0000552946092642415
343,0.025151252746582,0.0000672965739653832
344,0.0247659683227539,0.0000615600280101654
345,0.0243730545043945,0.0000454398541667993
346,0.0239353179931641,0.0000435517072058885
347,0.0235342979431152,0.0000618878789654424
348,0.0231218338012695,0.000064677823717288
349,0.0227141380310059,0.000059797927278945
350,0.0223355293273926,0.0000574158273772459
351,0.0220284461975098,0.0000665251923621952
352,0.0216813087463379,0.0000551948022047923
353,0.0213885307312012,0.0000650703664051761
354,0.0209660530090332,0.0000644047976560045
355,0.0204977989196777,0.0000728796889287674
356,0.0201749801635742,0.000056324339380251
357,0.0199317932128906,0.0000745087623009667
358,0.0196022987365723,0.000044703324635541
359,0.0193290710449219,0.0000493105879623223
360,0.0189480781555176,0.0000674703516816753
361,0.0185956954956055,0.0000614898109360039
362,0.0183372497558594,0.0000610742592721862
363,0.0180201530456543,0.0000641908540711389
364,0.017789363861084,0.0000665559459776889
365,0.0174546241760254,0.0000573514392928529
366,0.017366886138916,0.0000852552302377619
367,0.0171241760253906,0.0000610332935764282
368,0.0167708396911621,0.0000468988192751172
369,0.0165319442749023,0.0000502707142948437
370,0.0161538124084473,0.000058341956783992
371,0.0160136222839355,0.0000658432522714067
372,0.0160021781921387,0.0000730495228524952
373,0.0158610343933105,0.0000984388708795447
374,0.0155978202819824,0.0000857206805228408
375,0.0155611038208008,0.000056135298769738
376,0.0151996612548828,0.0000521379514054931
377,0.0151433944702148,0.0000698806441548323
378,0.0153069496154785,0.0000689174049593691
379,0.0150284767150879,0.0000957979973080843
380,0.0146493911743164,0.0000582229690687717
381,0.0143046379089355,0.0000609102311784089
382,0.0144186019897461,0.0000862047204885623
383,0.0140194892883301,0.0000805106746930844
384,0.013885498046875,0.0000696981963600541
385,0.0135860443115234,0.0000736894708688783
386,0.0133652687072754,0.000104654622191762
387,0.0134506225585937,0.0000831940783979965
388,0.0133991241455078,0.0000805657266638733
389,0.012331485748291,0.0000732484581369052
390,0.0127687454223633,0.0000811254031466368
391,0.0125327110290527,0.0000668031670501056
392,0.0128493309020996,0.0000613027903747108
393,0.012298583984375,0.000070798677072005
394,0.0118427276611328,0.0000971718786162259
395,0.0119709968566895,0.00011111226678102
396,0.0117015838623047,0.000100203899662504
397,0.0119104385375977,0.0000708099166139472
398,0.0118813514709473,0.0000595063352468893
399,0.0111417770385742,0.0000738743728094422
400,0.0110931396484375,0.0000806193308862384
401,0.0108070373535156,0.0000762089613618141
402,0.0105414390563965,0.0000764993049547374
403,0.0107226371765137,0.0000605217004433348
404,0.0105738639831543,0.0000604841198253218
405,0.0106410980224609,0.0000581780416707881
406,0.00946855545043945,0.0000555888652169771
407,0.0096278190612793,0.0000654848648075214
408,0.0100293159484863,0.0000964555651675225
409,0.00935506820678711,0.000085703437571186
410,0.00912809371948242,0.0000875668306532077
411,0.00935649871826172,0.0000781198403025528
412,0.00960159301757813,0.0000702036451255026
413,0.00926542282104492,0.0000801455321978169
414,0.0085139274597168,0.0000779975003455823
415,0.00868797302246094,0.0000628792560570047
416,0.00859737396240234,0.0000575898091406171
417,0.00847578048706055,0.0000730168332769431
418,0.00859308242797852,0.0000605423598398892
419,0.00834035873413086,0.0000652744613469213
420,0.00832223892211914,0.0000542715265281126
421,0.00902462005615234,0.0000523891938883894
422,0.00795936584472656,0.0000437418504278774
423,0.00795984268188477,0.0000434994681236286
424,0.00757646560668945,0.0000563374576592881
425,0.00743579864501953,0.0000551236954369294
426,0.00743341445922852,0.000107257626687923
427,0.00850200653076172,0.0000670715153298652
428,0.00678443908691406,0.0000501235017412989
429,0.00814056396484375,0.0000673759261919577
430,0.00734090805053711,0.000060631490040788
431,0.00661087036132813,0.0000547750795007289
432,0.00656604766845703,0.0000658933054738033
433,0.00730752944946289,0.0000785986180654127
434,0.00673818588256836,0.0000745606220775218
435,0.00607109069824219,0.0000476348149370367
436,0.00662040710449219,0.0000466033619799447
437,0.00656747817993164,0.0000506043083114412
438,0.00673770904541016,0.0000646936414486275
439,0.00638055801391602,0.000064134154619579
440,0.00655460357666016,0.0000495669875017823
441,0.00739908218383789,0.0000625602355766373
442,0.00571489334106445,0.0000498129392840052
443,0.00671100616455078,0.0000574821211468492
444,0.00609302520751953,0.0000555141675336807
445,0.00621843338012695,0.0000566222792775714
446,0.00625944137573242,0.0000592833442151001
447,0.005767822265625,0.0000521292286731713
448,0.00590324401855469,0.0000567986918337588
449,0.00599908828735352,0.0000744522856172365
450,0.00558185577392578,0.0000545410835593116
451,0.00556468963623047,0.0000745072364669802
452,0.00536727905273438,0.0000686430235072006
453,0.00520610809326172,0.0000694367250651536
454,0.00538396835327148,0.0000550535293478836
455,0.00527143478393555,0.0000592296246688566
456,0.00521564483642578,0.000077680563673212
457,0.00558900833129883,0.0000608794267101983
458,0.00514745712280273,0.0000545983751763594
459,0.00494003295898438,0.0000541183916370791
460,0.00459861755371094,0.0000542254218133145
461,0.00485849380493164,0.0000506379958609249
462,0.00455951690673828,0.0000482254252368095
463,0.00524139404296875,0.0000503272198477115
464,0.00488805770874023,0.0000554957334745526
465,0.00460910797119141,0.0000599422430860881
466,0.00414228439331055,0.0000710135251037114
467,0.00445079803466797,0.0000735566718989321
468,0.0043950080871582,0.0000581975795837111
469,0.00409841537475586,0.0000469024552652979
470,0.00434684753417969,0.0000620749682056822
471,0.00439596176147461,0.0000672238930696091
472,0.00455236434936523,0.0000659760687119598
473,0.00420427322387695,0.0000649199387554837
474,0.00389623641967773,0.0000710279319052331
475,0.00448989868164063,0.000066661766499715
476,0.00396394729614258,0.000062443824035496
477,0.00382328033447266,0.0000620364959564299
478,0.00403404235839844,0.0000832951399090894
479,0.00393247604370117,0.000063378098349352
480,0.00402355194091797,0.0000652744613469213
481,0.00372982025146484,0.0000716542040998546
482,0.00366020202636719,0.0000789752321369384
483,0.00420427322387695,0.0000610202532693725
484,0.00303554534912109,0.000044989781715359
485,0.0110259056091309,0.0000427674021736675
486,0.000174045562744141,0.0000358136133778103
487,0.00282144546508789,0.0000541761302554821
488,0.0030360221862793,0.0000726734871407406
489,0.00372171401977539,0.0000590469977157732
490,0.00327014923095703,0.000062277926713328
491,0.00329875946044922,0.0000614583720616075
492,0.00347614288330078,0.0000713919344795719
493,0.00360012054443359,0.000057900873547579
494,0.00313663482666016,0.0000527578889640054
495,0.00342416763305664,0.0000571638065267911
496,0.00345039367675781,0.0000699440633709293
497,0.00298881530761719,0.0000639761950388863
498,0.00339794158935547,0.0000498779417163752
499,0.00323152542114258,0.0000617941219323783
500,0.00291967391967773,0.0000705960593237342
501,0.00311708450317383,0.0000555581796946192
502,0.0031280517578125,0.0000495543710966743
503,0.00310802459716797,0.0000552750736206514
504,0.00286960601806641,0.000087092972235343
505,0.00313329696655273,0.0000773241111779194
506,0.00277423858642578,0.0000687059304272706
507,0.00266695022583008,0.0000582346835591626
508,0.00298786163330078,0.0000555080235275157
509,0.00288867950439453,0.0000653771393606502
510,0.00294733047485352,0.0000634516010126877
511,0.00281858444213867,0.0000620108345299105
512,0.00284481048583984,0.0000810202321031365
513,0.00285243988037109,0.0000614842640674765
514,0.00284767150878906,0.0000633942403808037
515,0.00275659561157227,0.0000761462809169159
516,0.00272607803344727,0.0000686363983722072
517,0.00263833999633789,0.0000597694027218471
518,0.0026545524597168,0.0000473475527670918
519,0.00268936157226562,0.0000523522901484999
520,0.00253391265869141,0.0000787041361054168
521,0.00255918502807617,0.000053197804949116
522,0.00247907638549805,0.0000402214333506228
523,0.00268268585205078,0.0000609279600193862
524,0.00249767303466797,0.0000618584802919871
525,0.00258970260620117,0.000041736873037992
526,0.00251436233520508,0.0000283858320708052
527,0.00249958038330078,0.0000438041829859368
528,0.00260305404663086,0.0000578262134149029
529,0.00243139266967773,0.0000839720931193543
530,0.00249242782592773,0.0000736925563695965
531,0.00251913070678711,0.0000679070358038413
532,0.00264120101928711,0.0000622706243826805
533,0.00258064270019531,0.0000513347922795745
534,0.00243234634399414,0.0000645546646147554
535,0.00231409072875977,0.0000550132466501218
536,0.00226020812988281,0.0000537801714247513
537,0.00258874893188477,0.0000703928583659902
538,0.00243902206420898,0.0000575038725823829
539,0.00230073928833008,0.0000705251667869045
540,0.00228357315063477,0.0000477920731572192
541,0.00230646133422852,0.0000770354004926849
542,0.00228548049926758,0.0000595970148925156
543,0.00223636627197266,0.0000436130081732544
544,0.0023350715637207,0.0000572770554073154
545,0.00212526321411133,0.0000527309461037376
546,0.00217437744140625,0.0000499508260940328
547,0.00251245498657227,0.0000532458670612252
548,0.00217103958129883,0.0000469847955713158
549,0.00203275680541992,0.0000449341544700231
550,0.00208854675292969,0.0000374256420672935
551,0.00211000442504883,0.0000573633317635444
552,0.00211954116821289,0.0000377590602619661
553,0.00208806991577148,0.0000500315579704904
554,0.00197267532348633,0.0000589516152646565
555,0.00216913223266602,0.0000611895604946114
556,0.00211095809936523,0.0000586063711659873
557,0.00205659866333008,0.0000547730039402234
558,0.00199365615844727,0.0000730479665377605
559,0.00203752517700195,0.000055631796513285
560,0.00213050842285156,0.0000402002288328409
561,0.0019536018371582,0.0000358342410560856
562,0.00187778472900391,0.0000388834316240191
563,0.00205612182617187,0.0000408760988108527
564,0.00195550918579102,0.0000469375886492606
565,0.00184822082519531,0.0000493186566428362
566,0.00188302993774414,0.0000616873231078958
567,0.00208520889282227,0.0000539700886534896
568,0.00190496444702148,0.0000488170410033271
569,0.0022130012512207,0.0000482890332115695
570,0.00198125839233398,0.0000354242193247953
571,0.00217390060424805,0.0000366901328079043
572,0.00129127502441406,0.0000426036055709427
573,0.00224494934082031,0.0000333990307003736
574,0.00196599960327148,0.000028580411631567
575,0.00150537490844727,0.000041497162926751
576,0.0023341178894043,0.0000308519537278311
577,0.0022273063659668,0.0000304784374767363
578,0.0016169548034668,0.0000260062107506244
579,0.00175952911376953,0.0000342062119187564
580,0.00258255004882812,0.0000323793146540927
581,0.00266265869140625,0.0000306263490253441
582,0.0010523796081543,0.0000257337488471543
583,0.000883579254150391,0.0000326529019778055
584,0.00272417068481445,0.0000327953400388736
585,0.00230932235717773,0.0000379744742304596
586,0.00124883651733398,0.0000368917602966343
587,0.00258255004882812,0.0000419393122238549
588,0.00137710571289062,0.0000394285513609648
589,0.00157785415649414,0.00003515683859094
590,0.00208663940429687,0.000036718783367093
591,0.00169229507446289,0.0000290298485411293
592,0.0027928352355957,0.0000300795062793172
593,0.00209379196166992,0.0000373762472958859
594,0.00192594528198242,0.0000396657155569934
595,0.00174283981323242,0.0000418334595326241
596,0.00134420394897461,0.0000442624589743567
597,0.00221633911132812,0.0000311417014497321
598,0.00191116333007812,0.0000249759820343166
599,0.00213098526000977,0.0000395243069152734
600,0.00179052352905273,0.0000374127297323857
601,0.00166940689086914,0.000042851718785593
602,0.00147771835327148,0.0000334508998425305
603,0.00157833099365234,0.0000356561342021374
604,0.00116872787475586,0.0000364429641805372
605,0.00202226638793945,0.0000329207628101198
606,0.00132608413696289,0.0000320635318316085
607,0.00147008895874023,0.0000330095667366724
608,0.001220703125,0.0000286117195695038
609,0.00128793716430664,0.0000342045500919563
610,0.00164270401000977,0.0000335111710182459
611,0.000980377197265625,0.0000347805232389746
612,0.00129556655883789,0.0000466898823441652
613,0.00152778625488281,0.0000344067005275889
614,0.00129604339599609,0.0000339811302157308
615,0.00139951705932617,0.0000473643575778311
616,0.000896453857421875,0.0000390664683967445
617,0.00121259689331055,0.0000405430776236583
618,0.00106716156005859,0.0000423439719573692
619,0.0011138916015625,0.0000383001470900832
620,0.00140666961669922,0.0000395939976355283
621,0.000777244567871094,0.0000456507767981547
622,0.00136232376098633,0.0000462040197248736
623,0.00102376937866211,0.0000375507369869248
624,0.00110387802124023,0.0000336786813867254
625,0.000818729400634766,0.0000410848551545663
626,0.000673294067382813,0.0000354875463347525
627,0.000917911529541016,0.0000281066080062693
628,0.000651359558105469,0.0000378117134124737
629,0.0010066032409668,0.0000393636222256891
630,0.000535488128662109,0.000037160424841296
631,0.000613689422607422,0.000034078014134135
632,0.000695228576660156,0.0000335637136649611
633,0.000632762908935547,0.0000317786119816633
634,0.000617027282714844,0.0000362858665470855
635,0.000765323638916016,0.0000309329156350316
636,0.000952720642089844,0.000041580637658294
637,0.000581741333007813,0.0000323994971581743
638,0.000713348388671875,0.0000280473897825577
639,0.000529766082763672,0.0000378530323649822
640,0.000607967376708984,0.000041599772160415
641,0.000634193420410156,0.0000415177050610356
642,0.000613689422607422,0.0000524867550118142
643,0.000567436218261719,0.0000461054930753243
644,0.000527858734130859,0.0000381812299448863
645,0.000684261322021484,0.0000481841529960924
646,0.000687599182128906,0.0000462470591287356
647,0.000526905059814453,0.0000311718045997766
648,0.000613212585449219,0.00003659938750109
649,0.000438213348388672,0.0000479606691740374
650,0.000395298004150391,0.0000328741095602859
651,0.00048828125,0.0000306226367406001
652,0.000331401824951172,0.0000316791818074199
653,0.000455856323242188,0.0000449986251641059
654,-0.000223159790039062,0.0000456532670895565
655,0.00460577011108398,0.0000359640814252057
656,0.00425195693969727,0.0000349053268121437
657,-0.00831127166748047,0.0000434733250428828
658,0.000506877899169922,0.000046005519862983
659,-0.000186443328857422,0.0000460092264483602
660,0.000173568725585937,0.0000431386120159786
661,0.000215530395507812,0.0000450579576549206
662,0.00018310546875,0.0000391623835368005
663,0.000226974487304687,0.0000468163277546951
664,0.000177383422851562,0.0000370217303157457
665,0.000249385833740234,0.0000348507292721241
666,0.000231742858886719,0.0000301601858469088
667,0.000230312347412109,0.0000425014136771797
668,0.0000796318054199219,0.0000473955507040631
669,-0.0000138282775878906,0.0000397187034486777
670,-0.0000243186950683594,0.0000263514554589235
671,0.0000638961791992188,0.0000329811410251438
672,0.0000300407409667969,0.0000312964686568722
673,-0.000291824340820312,0.0000303049615875791
674,-0.0000123977661132812,0.0000244079382859491
675,-0.0000958442687988281,0.0000308574806058012
676,-0.0000386238098144531,0.0000380806047556768
677,0.0000519752502441406,0.0000393296721832296
678,0.000116348266601562,0.0000430462747287686
679,0.000132560729980469,0.0000385199138436689
680,0.000179290771484375,0.0000441377123466726
681,0.000277996063232422,0.000044742725950035
682,0.000245094299316406,0.0000417811128766984
683,0.000384807586669922,0.0000366606846027859
684,0.000404834747314453,0.0000419630245510272
685,0.000418186187744141,0.0000406515912741606
686,0.000113964080810547,0.0000381111930898439
687,0.0000424385070800781,0.0000467725968733516
688,-0.0001068115234375,0.0000396786110163624
689,-0.000117778778076172,0.0000400756030084797
690,-0.000234127044677734,0.0000427953047924229
691,-0.000091552734375,0.0000262671928102812
692,0.00006866455078125,0.0000299303167296456
693,0.000159263610839844,0.0000358699147742839
694,0.000214099884033203,0.0000468138993329929
695,0.000259876251220703,0.0000382526245938095
696,0.000174999237060547,0.0000297158895255253
697,0.000327110290527344,0.0000446218699278323
698,-0.0000562667846679688,0.000038578896252129
699,-0.000113964080810547,0.0000346651103375928
700,-0.000101089477539062,0.0000298089973603969
701,-0.0000987052917480469,0.000033166758083876
702,0.000146389007568359,0.0000353270047002154
703,0.000245571136474609,0.0000280727120009137
704,0.000181674957275391,0.000039037356675874
705,0.0000720024108886719,0.0000422485525864287
706,-0.0000247955322265625,0.00004212593848706
707,0.0000100135803222656,0.0000395602452984782
708,-0.0000734329223632813,0.0000227024068946653
709,0.000125408172607422,0.0000338848080645215
710,0.000143527984619141,0.0000391013738518118
711,0.0000095367431640625,0.0000306504679166987
712,-0.0000767707824707031,0.0000290043820384184
713,-0.0000858306884765625,0.0000404230246094078
714,-0.0000095367431640625,0.0000558734334351808
715,0.000173091888427734,0.0000413125120429121
716,0.0000643730163574219,0.000035843757519155
717,-0.0000762939453125,0.0000302979268462908
718,-0.0000462532043457031,0.0000357691441289705
719,-0.000103473663330078,0.0000332232675611411
720,0.0000872611999511719,0.0000418504411200075
721,0.000192642211914062,0.000049257532324049
722,0.0000567436218261719,0.0000424800091237656
723,-0.000153064727783203,0.0000452618693354961
724,-0.000185489654541016,0.0000394573744587583
725,0.0000643730163574219,0.0000307864770002206
726,0.000173091888427734,0.0000411684755213726
727,0.0000271797180175781,0.0000530115547936545
728,-0.000191211700439453,0.0000463158389859147
729,-0.000169754028320312,0.000040503099490322
730,0.000104904174804687,0.0000319694333874926
731,0.000403881072998047,0.0000331564732860422
732,-0.0000391006469726562,0.0000523044937164386
733,-0.000380516052246094,0.0000541005326881631
734,-0.0000562667846679688,0.0000310484708232216
735,0.000299930572509766,0.0000298413974182413
736,0.000217914581298828,0.0000454323477895834
737,-0.000187873840332031,0.0000425014136771797
738,-0.000394821166992187,0.000031956984576979
739,0.000339031219482422,0.0000460450413906907
740,0.000265121459960937,0.0000372108699176789
741,-0.000311374664306641,0.0000384216551935908
742,-0.000426292419433594,0.0000349167244701821
743,0.000142097473144531,0.0000481274935119231
744,0.000394821166992187,0.0000455922157928525
745,-0.000264644622802734,0.0000371221632376478
746,-0.0005645751953125,0.0000308243044732303
747,0.000198841094970703,0.0000307495273025567
748,0.000332832336425781,0.0000243034969784732
749,-0.000354290008544922,0.0000263298753591128
750,-0.0005035400390625,0.0000274378249756161
751,0.000293731689453125,0.0000520091427530815
752,0.000254154205322266,0.0000554598719305979
753,-0.000563144683837891,0.0000347142691101099
754,-0.000372409820556641,0.0000367706072974486
755,0.000477790832519531,0.000035243234038997
756,0.0000443458557128906,0.0000373732054853176
757,-0.000675678253173828,0.000043440624067123
758,0.000112533569335937,0.0000424204209181922
759,0.000469684600830078,0.0000386429374332934
760,-0.000620365142822266,0.000030571547113442
761,-0.000542640686035156,0.0000342659840073045
762,0.000425815582275391,0.0000381387761370133
763,-0.000155925750732422,0.0000461892541256497
764,-0.000774860382080078,0.0000421279624913447
765,0.000322341918945312,0.0000367783359494661
766,0.00000762939453125,0.0000402941506042907
767,-0.00114536285400391,0.0000447668580018371
768,0.0000777244567871094,0.0000497009819824043
769,0.000548839569091797,0.0000391594804690769
770,-0.000844478607177734,0.0000373633178907145
771,-0.000428199768066406,0.0000388314997408116
772,0.000388145446777344,0.0000374264014776739
773,-0.000802516937255859,0.0000390788343111008
774,-0.000715255737304688,0.0000443522643514074
775,0.00045013427734375,0.0000344842619548121
776,-0.000753879547119141,0.0000406606792560897
777,-0.000834465026855469,0.0000418945610332078
778,0.000461578369140625,0.0000465191246266625
779,-0.000745296478271484,0.0000386488209499891
780,-0.000747203826904297,0.000031707878348939
781,0.000478267669677734,0.0000354835416463309
782,-0.000916481018066406,0.0000314712524414062
783,-0.000623226165771484,0.0000380858288933049
784,0.000364303588867187,0.0000471092428209546
785,-0.00103950500488281,0.000041753893907766
786,-0.000355720520019531,0.0000420543611414597
787,0.000163078308105469,0.0000449303591953451
788,-0.00117921829223633,0.0000459449366395794
789,-0.0000472068786621094,0.0000496575020533842
790,-0.000121593475341797,0.0000454160797161455
791,-0.00118446350097656,0.0000453007848465442
792,0.000241756439208984,0.0000548279797460655
793,-0.000581741333007813,0.0000628774480128362
794,-0.000663280487060547,0.0000466886648606947
795,0.000308036804199219,0.000045093267562784
796,-0.00130653381347656,0.0000450554344597539
797,-0.000329017639160156,0.0000433764586416727
798,-0.000125408172607422,0.0000585413505406061
799,-0.00118732452392578,0.0000563616679988926
800,0.0000405311584472656,0.0000375325672744158
801,-0.000848293304443359,0.0000429954046936686
802,-0.000740528106689453,0.0000395846647619635
803,0.0000433921813964844,0.0000395509044603354
804,-0.00124979019165039,0.0000422142296066899
805,-0.0000796318054199219,0.0000481676341979003
806,-0.000601768493652344,0.0000482690175191789
807,-0.000838279724121094,0.000035471524868322
808,-0.0000400543212890625,0.0000413633903868078
809,-0.00125312805175781,0.0000348841498530805
810,-0.0000128746032714844,0.0000469726957550993
811,-0.000733375549316406,0.0000618456139779213
812,-0.000799179077148438,0.000037928791762055
813,-0.000184535980224609,0.0000322429726846846
814,-0.00101280212402344,0.0000460808284969394
815,-0.0000619888305664063,0.0000436872364847044
816,-0.00106191635131836,0.000054897398673911
817,-0.000424385070800781,0.0000396793273078899
818,-0.000519275665283203,0.000040179720495118
819,-0.000935077667236328,0.0000299250934958133
820,-0.000132560729980469,0.0000374681453451512
821,-0.00102853775024414,0.0000489275356205896
822,-0.0000615119934082031,0.000045661982039925
823,-0.0009307861328125,0.0000351818908771842
824,-0.000426769256591797,0.0000438638352358823
825,-0.0005035400390625,0.0000602939798804501
826,-0.000688552856445313,0.0000485414606148003
827,-0.000253677368164062,0.0000490273475720248
828,-0.000866413116455078,0.0000503362548497766
829,-0.000095367431640625,0.0000363992638223318
830,-0.000946044921875,0.0000317750343163571
831,-0.000193119049072266,0.000036742770689541
832,-0.000761032104492188,0.0000395178345353459
833,-0.000285148620605469,0.0000316055279918083
834,-0.000553131103515625,0.0000319178281344988
835,-0.000306129455566406,0.0000407256341328242
836,-0.000271320343017578,0.0000493405506958595
837,-0.000626564025878906,0.000029167568091637
838,-0.000209808349609375,0.0000321060517289481
839,-0.000533103942871094,0.0000284223547078769
840,-0.000244140625,0.0000263115183580458
841,-0.000788688659667969,0.0000323591195621102
842,-0.000121116638183594,0.0000548497473706773
843,-0.000729084014892578,0.0000531186749214698
844,-0.000264644622802734,0.000036697878408026
845,-0.000640392303466797,0.000038208762432224
846,-0.000185489654541016,0.0000372337769047977
847,-0.000748157501220703,0.000038092544588933
848,-0.000151634216308594,0.0000365348759637896
849,-0.000562191009521484,0.0000510694599949088
850,-0.0002899169921875,0.000056483570416376
851,-0.000516414642333984,0.0000462765487278609
852,-0.000160694122314453,0.0000449910451716047
853,-0.000547409057617188,0.0000368909898805313
854,-0.000167369842529297,0.000045979565398894
855,-0.000628471374511719,0.0000472959006575677
856,-0.000342845916748047,0.0000503136643025255
857,-0.000591754913330078,0.0000306133540592687
858,-0.000285148620605469,0.0000368069178512632
859,-0.000646591186523438,0.0000378530323649822
860,-0.000200271606445312,0.000043691139744617
861,-0.000500679016113281,0.0000449316243225243
862,-0.000374317169189453,0.0000432622977823759
863,-0.000479698181152344,0.0000353438958362702
864,-0.000248432159423828,0.0000477004022012438
865,-0.000668525695800781,0.0000435125337737966
866,-0.000179767608642578,0.0000436286456811694
867,-0.000465869903564453,0.0000488589420523868
868,-0.000336170196533203,0.000040750750159962
869,-0.000397682189941406,0.0000500020093113645
870,-0.000349521636962891,0.0000591489538710957
871,-0.000551223754882813,0.0000567736666341294
872,-0.000253200531005859,0.0000444175796483884
873,-0.000318050384521484,0.0000419386345317909
874,-0.000361442565917969,0.0000561150428246591
875,-0.000280380249023437,0.0000582454197722941
876,-0.000457286834716797,0.0000517988711949195
877,-0.000275611877441406,0.000043494240764585
878,-0.000365257263183594,0.0000449341544700231
879,-0.000248908996582031,0.000054236951666247
880,-0.0003204345703125,0.0000443407281351765
881,-0.000259876251220703,0.0000391115487415572
882,-0.000497341156005859,0.0000492148156316676
883,-0.000278949737548828,0.0000462286185764937
884,-0.000396728515625,0.000044945538371182
885,-0.000288486480712891,0.0000606136744856263
886,-0.00022125244140625,0.0000504873507777577
887,-0.000399589538574219,0.0000559191959127905
888,-0.000116825103759766,0.0000469605928212571
889,-0.000457763671875,0.0000588444874506099
890,-0.000188350677490234,0.0000612229943704298
891,-0.000222206115722656,0.0000606811584181237
892,-0.000231742858886719,0.0000437950983467486
893,-0.0000576972961425781,0.0000534100190236887
894,-0.000404834747314453,0.0000670223420364918
895,-0.00011444091796875,0.0000517703312649929
896,-0.000278472900390625,0.0000478989986540422
897,-0.000113487243652344,0.0000403906687405048
898,-0.000126838684082031,0.0000499838168387553
899,-0.000211238861083984,0.0000750984463600541
900,-0.000103950500488281,0.0000597189760405107
901,-0.000176906585693359,0.000044639700845598
902,-0.0000433921813964844,0.0000473751575226948
903,-0.000128269195556641,0.0000531614625355779
904,-0.000064849853515625,0.000047091139894866
905,-0.000293731689453125,0.0000411249588615675
906,-0.0000643730163574219,0.0000473367465241651
907,-0.00000715255737304688,0.0000483784138658442
908,-0.0000777244567871094,0.0000538393285748257
909,0.0000500679016113281,0.0000489182404344463
910,0.0000791549682617188,0.0000605367261582281
911,0.000127792358398437,0.0000547283603501301
912,0.0000786781311035156,0.0000478479418370101
913,0.0000147819519042969,0.0000595559875249895
914,-0.0000238418579101562,0.0000586781012579383
915,0.000113010406494141,0.0000606577350057054
916,0.000170230865478516,0.000066167062203633
917,0.000030517578125,0.0000523316561354216
918,0.0000977516174316406,0.0000550999727890655
919,0.00000524520874023438,0.0000471152755839576
920,-0.0000143051147460937,0.0000512561131272049
921,0.000183582305908203,0.0000592564905294756
922,0.000236988067626953,0.0000572542249870267
923,0.000170230865478516,0.0000514895820110058
924,0.000147342681884766,0.0000478598203759178
925,0.000253677368164062,0.0000481924102718975
926,0.0000619888305664063,0.0000434288456881093
927,0.000287055969238281,0.0000347935955526104
928,0.000252723693847656,0.0000389637527829964
929,0.000326633453369141,0.0000436077944245002
930,0.000352859497070312,0.0000618805306064797
931,0.000220298767089844,0.0000502967147334833
932,0.000391483306884766,0.0000660673326802568
933,0.000348567962646484,0.0000601967961401501
934,0.000340938568115234,0.0000550752078275737
935,0.000409126281738281,0.000040683041024119
936,0.000433921813964844,0.0000654188605769966
937,0.000435829162597656,0.0000570513292042339
938,0.000537395477294922,0.0000504738382382764
939,0.000446319580078125,0.0000497558496885131
940,0.000406742095947266,0.0000534802156259716
941,0.000676155090332031,0.0000723395129948079
942,0.000660896301269531,0.0000843139250819973
943,0.000771522521972656,0.0000916445788005057
944,0.000602245330810547,0.0000803566114822691
945,0.00081634521484375,0.0000756113992420761
946,0.000764846801757813,0.0000854204227257672
947,0.000677585601806641,0.0000756670107863131
948,0.000793933868408203,0.000113250581828094
949,0.000850677490234375,0.0000787128025301642
950,0.000823497772216797,0.0000761492668699361
951,0.000933170318603516,0.0000943390714613992
952,0.00113773345947266,0.000104035771244552
953,0.00102901458740234,0.0000900704876183899
954,0.00116872787475586,0.0000903502611825938
955,0.00133037567138672,0.000143751970835125
956,0.00138282775878906,0.000111398386246573
957,0.00145673751831055,0.000127268185906275
958,0.00151205062866211,0.000114611657250501
959,0.00133848190307617,0.000125816355392921
960,0.00143814086914062,0.000107826367462297
961,0.00146722793579102,0.00012340044486056
962,0.00145053863525391,0.000137143539522152
963,0.00145244598388672,0.000101522651205737
964,0.0013580322265625,0.0000907920989377321
965,0.00169801712036133,0.000110202008841826
966,0.00148391723632812,0.000135713585191769
967,0.00127553939819336,0.0000986603620798381
968,0.00134897232055664,0.000118618454650944
969,0.00125551223754883,0.000128770755230852
970,0.00124883651733398,0.000112537610256252
971,0.00131320953369141,0.000137123642981265
972,0.0010075569152832,0.000200548434802674
973,0.000859737396240234,0.00015934639338277
974,0.00116825103759766,0.000122393983646672
975,0.000957012176513672,0.000163434849087853
976,0.000775337219238281,0.000138667000345732
977,0.000915050506591797,0.00012580912643745
978,0.000769138336181641,0.0000856251374577993
979,0.000880241394042969,0.000117220501425243
980,0.000909805297851563,0.000136798256508187
981,0.000463962554931641,0.000101226587700686
982,0.000637054443359375,0.000114995882377494
983,0.000326156616210937,0.000154936126060369
984,0.000409126281738281,0.000193490154539658
985,0.000285625457763672,0.000203541894103303
986,0.0000581741333007813,0.000152558085391661
987,-0.000127792358398437,0.000171120108164649
988,-0.0000300407409667969,0.000229104251878308
989,0.0000057220458984375,0.000253964025544818
990,-0.000247955322265625,0.000172425265858154
991,-0.000334262847900391,0.000210487826018909
992,-0.000432014465332031,0.000242960581419847
993,-0.00028228759765625,0.000214773723449866
994,-0.000300884246826172,0.000129457556247481
995,-0.000499725341796875,0.000142563943900692
996,-0.000464439392089844,0.000188403182618537
997,-0.000550746917724609,0.000221859985711599
998,-0.000698566436767578,0.000224731485977045
999,-0.000967979431152344,0.00025039354376944
1000,-0.000658035278320313,0.00015671918970368
1001,-0.000923633575439453,0.000111118405636822
1002,-0.000948905944824219,0.000153624470760051
1003,-0.00103759765625,0.00023321968429965
1004,-0.00107955932617187,0.000271802199467943
1005,-0.00151968002319336,0.000275874095638497
1006,-0.00155353546142578,0.000305348585794913
1007,-0.00111675262451172,0.00023970827325858
1008,-0.00166940689086914,0.000269739830469722
1009,-0.00124549865722656,0.000229793956371651
1010,-0.00182676315307617,0.000186852034004608
1011,-0.00173616409301758,0.000205640136290643
1012,-0.00181484222412109,0.000295053949056278
1013,-0.00163745880126953,0.000261737996699646
1014,-0.00191402435302734,0.000285873321459888
1015,-0.00202035903930664,0.00022282126417778
1016,-0.00223827362060547,0.000177583274238523
1017,-0.00200891494750977,0.000213248059988002
1018,-0.00182151794433594,0.000239009125805601
1019,-0.00187206268310547,0.000221581050589868
1020,-0.00213384628295898,0.000239488110108215
1021,-0.00261831283569336,0.000283996461515321
1022,-0.00252246856689453,0.00031769810201503
1023,-0.00217628479003906,0.000269544198150189
1024,-0.0019993782043457,0.000263511103164477
1025,-0.0023341178894043,0.000262022777726355
1026,-0.00265121459960937,0.000285178919684705
1027,-0.00258398056030273,0.000216351691283996
1028,-0.00303173065185547,0.000212166280943861
1029,-0.00330829620361328,0.000270224925970838
1030,-0.00324535369873047,0.000268435180689986
1031,-0.00261926651000977,0.000313995005773965
1032,-0.00294637680053711,0.000399624816138478
1033,-0.00329065322875977,0.000455149497628011
1034,-0.00326299667358398,0.000242462200215206
1035,-0.00336122512817383,0.000290105156319669
1036,-0.00345039367675781,0.000372582870407384
1037,-0.00363731384277344,0.000366915581210768
1038,-0.00334882736206055,0.00041525042985954
1039,-0.0040583610534668,0.000318612869534624
1040,-0.0033268928527832,0.00035565787369687
1041,-0.00397443771362305,0.000461704457613684
1042,-0.00398397445678711,0.000503612281934432
1043,-0.00435113906860352,0.000390443163510864
1044,-0.00413799285888672,0.000497609675876475
1045,-0.00402212142944336,0.000473890738210583
1046,-0.00457906723022461,0.00046946355778828
1047,-0.00413322448730469,0.000423774923554091
1048,-0.00514364242553711,0.000425223262145984
1049,-0.00524473190307617,0.000441558417638338
1050,-0.00410652160644531,0.000416693475476727
1051,-0.00540590286254883,0.000502035030406558
1052,-0.00497198104858398,0.000478869873897094
1053,-0.00568485260009766,0.000542894548725019
1054,-0.00477743148803711,0.000521958769353945
1055,-0.00587844848632813,0.000466977221772852
1056,-0.00511264801025391,0.000359847492223612
1057,-0.0055384635925293,0.000458295830712688
1058,-0.00532627105712891,0.000645879055126881
1059,-0.00653791427612305,0.0007125421547654
1060,-0.00624370574951172,0.000800177649055597
1061,-0.00642871856689453,0.000760092190722034
1062,-0.00785684585571289,0.000630753012155749
1063,-0.00549983978271484,0.000522836233982374
1064,-0.00646066665649414,0.000541283900747046
1065,-0.00768756866455078,0.000396462498023715
1066,-0.00653553009033203,0.000598080787376158
1067,-0.00591945648193359,0.00079609359501621
1068,-0.00576019287109375,0.000857704799132463
1069,-0.00542736053466797,0.000603867902531377
1070,-0.00603437423706055,0.000539924548219354
1071,-0.00709342956542969,0.000743797494720203
1072,-0.00608730316162109,0.00097554869480472
1073,-0.00507926940917969,0.00105130731255181
1074,-0.00539636611938477,0.00107094526033732
1075,-0.00563478469848633,0.00106259691623844
1076,-0.00611448287963867,0.00111584948563862
1077,-0.00650787353515625,0.000965005317666233
1078,-0.00759983062744141,0.00149458261572093
1079,-0.00813579559326172,0.00124562570995841
1080,-0.0064702033996582,0.000885897224341674
1081,-0.00669527053833008,0.000852582705364929
1082,-0.00731611251831055,0.00107536579793476
1083,-0.00730657577514648,0.00139248468585813
1084,-0.0100183486938477,0.00158984573701552
1085,-0.00931787490844727,0.00129926147258797
1086,-0.00766944885253906,0.00139139742776172
1087,-0.00633764266967773,0.001312255859375
1088,-0.00950860977172852,0.00112359510391964
1089,-0.0101556777954102,0.00121549448756694
1090,-0.00860881805419922,0.00109172343790182
1091,-0.00856304168701172,0.00259856774536465
1092,-0.0094761848449707,0.00223414935459822
1093,-0.0130949020385742,0.00186566387843671
1094,-0.00802421569824219,0.00173125066808832
1095,-0.0113201141357422,0.00131761211834328
1096,-0.0124664306640625,0.00227402035952901
1097,-0.0112576484680176,0.00250657832891766
1098,-0.0130891799926758,0.00200291587196172
1099,-0.0145282745361328,0.00159470771783089
1100,-0.0144319534301758,0.00182532367285555
