Wavelength (nm),Absorbance (AU),Std.Dev.
190,0.282329082489014,0.0000934990003873912
191,0.27777624130249,0.0000578242473727972
192,0.273964405059814,0.0000653075447706017
193,0.272109985351562,0.0000795632484129138
194,0.270107269287109,0.0000585083273614584
195,0.267677307128906,0.0000694596430974846
196,0.265340805053711,0.000045925137053812
197,0.262924671173096,0.000041499217597756
198,0.259590148925781,0.0000440151951218447
199,0.254929542541504,0.0000471936313267392
200,0.249215602874756,0.0000371099111928444
201,0.24381685256958,0.0000581360129233672
202,0.239523887634277,0.0000541645874556802
203,0.236486434936523,0.0000542977049481345
204,0.234560966491699,0.0000464885661758665
205,0.233117580413818,0.0000670070740219084
206,0.231741428375244,0.0000620676419967335
207,0.230460643768311,0.0000424900438507437
208,0.229153633117676,0.0000451436623790947
209,0.227677822113037,0.0000333939244655571
210,0.225954055786133,0.0000320324921580642
211,0.223972320556641,0.0000496678033712117
212,0.221984386444092,0.0000419630245510272
213,0.219832420349121,0.0000526608301543318
214,0.217498779296875,0.0000447566987238209
215,0.215100288391113,0.0000366568080777724
216,0.212608814239502,0.0000344190890710097
217,0.210047245025635,0.0000447668580018371
218,0.207420349121094,0.0000532106257570501
219,0.204746246337891,0.0000413407091311827
220,0.202009677886963,0.0000303035547699664
221,0.19922924041748,0.0000335366051588402
222,0.196286678314209,0.0000393007554289466
223,0.193336963653564,0.0000352166113177448
224,0.19042444229126,0.0000312100757063934
225,0.187516689300537,0.0000387362327500849
226,0.184421062469482,0.0000345065080075824
227,0.181484699249268,0.0000498813605505633
228,0.178212642669678,0.0000399093046353835
229,0.174939155578613,0.0000323468207243137
230,0.171648502349854,0.0000419711514077996
231,0.168476581573486,0.0000409552878606014
232,0.165173053741455,0.00004455812983026
233,0.161834716796875,0.0000413640775034367
234,0.158361434936523,0.0000290004621300262
235,0.155083656311035,0.0000304485822596025
236,0.151906967163086,0.0000326563834685903
237,0.148919582366943,0.0000337621249096644
238,0.146194934844971,0.0000391710914490494
239,0.143613815307617,0.0000376905012005738
240,0.141180515289307,0.0000412064286828062
241,0.138803005218506,0.0000322447356072746
242,0.13665246963501,0.0000346158817536956
243,0.134528160095215,0.0000401280496596703
244,0.132416725158691,0.0000306049972388235
245,0.130489349365234,0.0000373130789155461
246,0.128627300262451,0.0000315812385338469
247,0.126885414123535,0.0000261832017364335
248,0.125174522399902,0.0000301229396851482
249,0.123566150665283,0.0000244985966545401
250,0.122115135192871,0.000020582511749417
251,0.120599746704102,0.0000272037583827834
252,0.119342803955078,0.0000383579855283506
253,0.11805534362793,0.0000388614970413383
254,0.116805076599121,0.0000392001038527224
255,0.115745067596436,0.0000373671211213399
256,0.114547252655029,0.0000343926547837551
257,0.113500595092773,0.0000378808033933051
258,0.112452030181885,0.0000425935975982488
259,0.111356258392334,0.0000403702571475366
260,0.110305309295654,0.0000597751087222154
261,0.109187602996826,0.0000393289495234928
262,0.108185768127441,0.0000362999627081405
263,0.107053756713867,0.0000436038837038205
264,0.105991840362549,0.0000335120191339314
265,0.104852199554443,0.0000393036480617425
266,0.103675842285156,0.0000565670375263952
267,0.102499008178711,0.0000522653550334731
268,0.101246356964111,0.0000536627207611442
269,0.100022315979004,0.0000487494580045016
270,0.0989060401916504,0.0000443176466938243
271,0.0977969169616699,0.0000507041827489274
272,0.0965671539306641,0.0000473163279983959
273,0.0953636169433594,0.0000495750144514946
274,0.0941252708435059,0.0000513635742152727
275,0.0930233001708984,0.0000390402688248281
276,0.09185791015625,0.00004870396153355
277,0.0905766487121582,0.0000658501584233317
278,0.0894436836242676,0.0000722561716085726
279,0.0882673263549805,0.0000542379997131581
280,0.0870852470397949,0.000049529128645243
281,0.0858907699584961,0.0000454686171327828
282,0.0846891403198242,0.000046709357763895
283,0.0834836959838867,0.0000528171148777838
284,0.0823197364807129,0.0000461597087575141
285,0.0811257362365723,0.0000361084131250648
286,0.079923152923584,0.0000410100747845542
287,0.078740119934082,0.0000415956726509534
288,0.077634334564209,0.0000532298511789751
289,0.076359748840332,0.0000388022117329183
290,0.0753245353698731,0.0000303213696368536
291,0.0742321014404297,0.0000355435645958795
292,0.0731096267700195,0.0000372490404033911
293,0.0720348358154297,0.0000418259854499595
294,0.0710458755493164,0.0000318572189674627
295,0.07000732421875,0.0000305119896778678
296,0.069028377532959,0.0000397415952504118
297,0.067894458770752,0.000043263611687522
298,0.0669217109680176,0.0000557093976180177
299,0.0660157203674316,0.0000520102356921033
300,0.0650401115417481,0.0000380544733099533
301,0.0640478134155273,0.0000429087209888802
302,0.0631232261657715,0.0000517450712823888
303,0.0620803833007813,0.0000487226318918125
304,0.0611948966979981,0.0000355803285742144
305,0.0602254867553711,0.0000381931383209871
306,0.0593028068542481,0.0000437535445466341
307,0.0584182739257813,0.0000419934921543666
308,0.0575599670410156,0.0000552987211519039
309,0.0566678047180176,0.0000455061067231557
310,0.0558600425720215,0.0000498973120128068
311,0.0549798011779785,0.000043749646854359
312,0.054192066192627,0.000041279476343462
313,0.0534281730651856,0.0000479357733225334
314,0.0525703430175781,0.0000542767632222136
315,0.0516252517700195,0.0000482619511752319
316,0.0509905815124512,0.0000499462739363551
317,0.0502901077270508,0.0000473955507040631
318,0.0494227409362793,0.0000487331308249794
319,0.0486860275268555,0.0000568207048922853
320,0.0479707717895508,0.0000528181910978664
321,0.0472803115844727,0.0000363734872398194
322,0.0466198921203613,0.000038710543886758
323,0.0459709167480469,0.0000341613142196314
324,0.045290470123291,0.0000629533411581588
325,0.0447845458984375,0.0000702408811408477
326,0.0439939498901367,0.000061779402036521
327,0.0434393882751465,0.0000515745183416448
328,0.0428824424743652,0.0000394134107966839
329,0.0422024726867676,0.0000478336836965882
330,0.0415396690368652,0.0000470838967755592
331,0.0409841537475586,0.0000439712639019113
332,0.040280818939209,0.0000487261317875555
333,0.0396871566772461,0.0000464641049449302
334,0.0391120910644531,0.0000676453636127048
335,0.0384683609008789,0.0000674922529912116
336,0.0378108024597168,0.0000592392210177585
337,0.0372958183288574,0.0000573028527554557
338,0.0367245674133301,0.0000402666323347966
339,0.0361847877502441,0.0000372085784433354
340,0.0356287956237793,0.0000498197856392249
341,0.0350527763366699,0.0000461289122095404
342,0.0344748497009277,0.0000566574050756611
343,0.0338554382324219,0.0000596694593889166
344,0.0333490371704102,0.0000590864544510255
345,0.0326619148254395,0.0000406404032757998
346,0.0321965217590332,0.0000374020926976618
347,0.0316543579101562,0.0000585957010883096
348,0.0310258865356445,0.000066677113584359
349,0.0305328369140625,0.0000498026679864894
350,0.0299534797668457,0.0000507041827489274
351,0.0293984413146973,0.0000670155566816744
352,0.0289177894592285,0.0000580988459333962
353,0.0283670425415039,0.0000622066924242751
354,0.0278582572937012,0.0000521008697075109
355,0.0272564888000488,0.0000523631468894865
356,0.0267620086669922,0.0000557216405449001
357,0.0263047218322754,0.0000801809869804394
358,0.0257630348205566,0.0000531668085661558
359,0.0252447128295898,0.0000483455033764124
360,0.0246601104736328,0.0000629786185497248
361,0.0241847038269043,0.0000696002597359957
362,0.0237693786621094,0.0000510972789404155
363,0.0234026908874512,0.0000509055770915773
364,0.0229883193969727,0.000058964149033141
365,0.0223331451416016,0.0000748041853953236
366,0.0222058296203613,0.0000769630535969801
367,0.0217523574829102,0.0000577189664893113
368,0.0212841033935547,0.0000544774714787938
369,0.0210685729980469,0.0000630724173118075
370,0.0204477310180664,0.0000737943055178745
371,0.0201826095581055,0.0000524856719956264
372,0.0199623107910156,0.0000704396787721396
373,0.019620418548584,0.000106042408934919
374,0.0192379951477051,0.0000759519421718118
375,0.0190224647521973,0.0000655594736624953
376,0.0186471939086914,0.0000749438758725402
377,0.0185055732727051,0.0000622633211956053
378,0.0185575485229492,0.0000532245114805879
379,0.0179719924926758,0.0000735999350798597
380,0.0175571441650391,0.000057539448104139
381,0.0172238349914551,0.000078628987078411
382,0.0171408653259277,0.000107691325972232
383,0.0166029930114746,0.0000807686704245017
384,0.016364574432373,0.000064732290742282
385,0.0160036087036133,0.0000726328026282469
386,0.0156011581420898,0.0000749924028713103
387,0.015723705291748,0.0000677360568439659
388,0.0157008171081543,0.0000853152161005805
389,0.0143117904663086,0.0000998811663115087
390,0.014739990234375,0.0000814345173619719
391,0.0143156051635742,0.0000796432258502871
392,0.0146470069885254,0.0000657914330244661
393,0.0139331817626953,0.0000639939627496849
394,0.0134482383728027,0.0000733880116246778
395,0.0134291648864746,0.0000993264505430544
396,0.013094425201416,0.00011824984690226
397,0.0133109092712402,0.0000707488804943747
398,0.0132331848144531,0.0000603401579785177
399,0.0123167037963867,0.0000605883486326454
400,0.0122766494750977,0.000071874403691928
401,0.0120205879211426,0.0000737588634153904
402,0.011620044708252,0.0000653266906738281
403,0.0116949081420898,0.0000564795447895149
404,0.0116348266601562,0.0000640365851417664
405,0.0116043090820312,0.0000683143080801697
406,0.0104808807373047,0.0000669510615127787
407,0.0104532241821289,0.0000620493226899396
408,0.0109901428222656,0.0000686744841702034
409,0.0101499557495117,0.0000665251923621952
410,0.00987625122070313,0.0000818383710972783
411,0.010136604309082,0.0000649514524408325
412,0.0103063583374023,0.0000615711075965425
413,0.00987434387207031,0.0000828119401115765
414,0.00924253463745117,0.0000690261933537764
415,0.00929498672485352,0.0000655854800396785
416,0.00908470153808594,0.0000679639332045259
417,0.00906801223754883,0.0000760402036196734
418,0.0091710090637207,0.0000738050888665105
419,0.00884819030761719,0.0000666515331467317
420,0.0089106559753418,0.0000621006031306674
421,0.00958156585693359,0.0000662220210977709
422,0.00850009918212891,0.0000645211951508195
423,0.0083622932434082,0.0000671951370781525
424,0.00798177719116211,0.0000922134519157915
425,0.00789451599121094,0.0000652431036813298
426,0.00777530670166016,0.0000825148756961288
427,0.00907039642333984,0.0000581751104178994
428,0.00726413726806641,0.0000645757942856987
429,0.00853061676025391,0.0000661533153459136
430,0.00772666931152344,0.0000543866173230235
431,0.0070490837097168,0.0000584431976581384
432,0.00694370269775391,0.000079199479698117
433,0.00768184661865234,0.0000848046540837791
434,0.00720024108886719,0.0000801568794344868
435,0.00652885437011719,0.0000593264764588587
436,0.00705718994140625,0.0000715446446743433
437,0.00701332092285156,0.0000682610337664041
438,0.00713968276977539,0.0000677545165077492
439,0.00672388076782227,0.0000576913846352992
440,0.00694036483764648,0.0000593283927196663
441,0.00782680511474609,0.000080331141425691
442,0.00620222091674805,0.000071962926788
443,0.0071563720703125,0.0000607101908985204
444,0.00655126571655273,0.0000578576610027832
445,0.0066523551940918,0.0000590132942643119
446,0.006683349609375,0.0000566313137065245
447,0.00616741180419922,0.0000445619568071631
448,0.00643301010131836,0.0000586635684617893
449,0.00646305084228516,0.0000729623181042954
450,0.00603675842285156,0.0000555029030028397
451,0.00609970092773438,0.0000516384041074132
452,0.00590848922729492,0.0000510761379236716
453,0.00563669204711914,0.0000515612907142557
454,0.00587701797485352,0.000054409606268295
455,0.00571823120117188,0.0000624183300699385
456,0.00559902191162109,0.0000712979190571811
457,0.00594043731689453,0.0000743896532653391
458,0.00564002990722656,0.0000734065987110774
459,0.00542783737182617,0.0000645088599183247
460,0.00502443313598633,0.0000493267240035057
461,0.00538730621337891,0.0000603731207094079
462,0.005035400390625,0.000052380512994562
463,0.00578069686889648,0.0000577229056782931
464,0.00543975830078125,0.0000496700922628174
465,0.00533056259155273,0.000059125884855448
466,0.00477409362792969,0.0000662975151871706
467,0.00506591796875,0.0000645053351329264
468,0.00495815277099609,0.000065437973911349
469,0.00475215911865234,0.0000606549235883553
470,0.00503158569335938,0.0000949373082332216
471,0.00490951538085938,0.0000902319043923559
472,0.00517559051513672,0.0000736184686601459
473,0.00471019744873047,0.0000690327810798225
474,0.00459861755371094,0.0000775677909932906
475,0.00512790679931641,0.000049908702793006
476,0.00465011596679688,0.000050497482809501
477,0.0045781135559082,0.0000673641136993283
478,0.00469684600830078,0.000088701965395574
479,0.00460624694824219,0.0000892921346093393
480,0.00468015670776367,0.0000761776275862026
481,0.0044713020324707,0.0000723897858674839
482,0.00444650650024414,0.0000712149551060821
483,0.00487661361694336,0.0000566132434068902
484,0.00377941131591797,0.000047737329859658
485,0.0121378898620605,0.0000441171016930404
486,0.000624656677246094,0.0000374203257631083
487,0.00355243682861328,0.0000552370106972918
488,0.00383710861206055,0.0000753613937319438
489,0.0044856071472168,0.0000526111531712448
490,0.00411605834960938,0.0000612489858784444
491,0.00401687622070313,0.0000738374294635033
492,0.00417375564575195,0.0000665354451467767
493,0.00437021255493164,0.0000486151794133754
494,0.00388956069946289,0.000050945760424048
495,0.00416231155395508,0.0000661893947580743
496,0.00419759750366211,0.0000654084327678003
497,0.00377988815307617,0.0000834042578440108
498,0.00422811508178711,0.0000739850921647082
499,0.00396347045898437,0.0000478443777002558
500,0.00354576110839844,0.0000520069568061329
501,0.00398826599121094,0.0000608271167625919
502,0.00390958786010742,0.0000378913060422347
503,0.00387859344482422,0.0000505132397082582
504,0.00368595123291016,0.0000662477673843071
505,0.00390195846557617,0.0000734576889482564
506,0.00366830825805664,0.0000655247824368349
507,0.00356101989746094,0.0000762492287245153
508,0.00386810302734375,0.0000539606086671197
509,0.00369071960449219,0.0000708709001674241
510,0.00376510620117187,0.0000526910453872343
511,0.00364971160888672,0.0000619888305664063
512,0.00368404388427734,0.0000809444243390005
513,0.00359964370727539,0.0000727563504994161
514,0.00355291366577148,0.0000607915950918922
515,0.00355243682861328,0.0000724007784051268
516,0.00348806381225586,0.0000785219202324684
517,0.00332212448120117,0.0000571737496147456
518,0.00343465805053711,0.000056409049814638
519,0.00349855422973633,0.0000570004924123122
520,0.00337362289428711,0.0000580665500365545
521,0.00335216522216797,0.0000492552242607755
522,0.00330352783203125,0.0000553665232096585
523,0.00346755981445312,0.000071173436865166
524,0.0033411979675293,0.0000595655312949857
525,0.00341939926147461,0.0000538498855130191
526,0.00327730178833008,0.0000426536102113176
527,0.0032811164855957,0.0000482077414603223
528,0.00337743759155273,0.000058947758184355
529,0.00316190719604492,0.000070278097427135
530,0.00328636169433594,0.0000750727067129686
531,0.00324058532714844,0.0000702683907310053
532,0.00343084335327148,0.0000747433689743793
533,0.00337409973144531,0.0000525592662600759
534,0.00321292877197266,0.0000418619846646077
535,0.00317049026489258,0.0000514608705511996
536,0.00302505493164062,0.0000555878426391376
537,0.00334262847900391,0.0000602430487325065
538,0.0032196044921875,0.0000532255794631204
539,0.00310087203979492,0.0000573950329716914
540,0.00316095352172852,0.0000472562223772246
541,0.00309133529663086,0.0000637786410460385
542,0.00310039520263672,0.0000440423072193796
543,0.00308036804199219,0.0000501541122085565
544,0.00317859649658203,0.0000574336451611134
545,0.00291633605957031,0.0000533184120549996
546,0.00297832489013672,0.0000375401390567104
547,0.00323009490966797,0.0000440861676457452
548,0.00292587280273437,0.000043560842604471
549,0.00285005569458008,0.0000488240270087059
550,0.00278711318969727,0.0000433305680204228
551,0.00294065475463867,0.0000588551124248346
552,0.0028529167175293,0.00005733756162616
553,0.00284719467163086,0.0000562233272125506
554,0.00278520584106445,0.0000563162650743098
555,0.00301980972290039,0.0000501552455707895
556,0.0028538703918457,0.0000402299120283021
557,0.00273513793945312,0.0000554127043197057
558,0.00269460678100586,0.0000752647842619155
559,0.00283145904541016,0.0000545150220111921
560,0.00288248062133789,0.0000459436994154503
561,0.00273895263671875,0.000053058714293699
562,0.00267696380615234,0.0000553962887802024
563,0.00275373458862305,0.0000422283659769403
564,0.00268316268920898,0.0000560298878889179
565,0.00262117385864258,0.0000526154747708226
566,0.00258970260620117,0.0000604662608495612
567,0.00274467468261719,0.0000499462739363551
568,0.00260305404663086,0.0000573454921326469
569,0.00293064117431641,0.0000489403136189278
570,0.00273799896240234,0.0000477647093511244
571,0.00289630889892578,0.0000490586419967636
572,0.00203418731689453,0.0000474902041132844
573,0.00306034088134766,0.0000414327316212243
574,0.00267362594604492,0.0000440423072193796
575,0.00228786468505859,0.0000394408037512532
576,0.00309467315673828,0.0000281727644641676
577,0.00301933288574219,0.0000292211125116349
578,0.00230598449707031,0.0000287563842629355
579,0.00251960754394531,0.0000388102681383895
580,0.00333452224731445,0.0000289430728111534
581,0.00344991683959961,0.0000338092340917683
582,0.00175285339355469,0.0000395264641397293
583,0.00156021118164062,0.0000354859445136167
584,0.00351572036743164,0.0000347510925540171
585,0.00304794311523437,0.000046515458672551
586,0.00194549560546875,0.000029031317080856
587,0.00339031219482422,0.000043174175050412
588,0.00214910507202148,0.0000388263759342619
589,0.00229024887084961,0.0000477837467011633
590,0.00284481048583984,0.0000492217451812241
591,0.00245094299316406,0.0000440035705377935
592,0.00361108779907227,0.0000552370106972918
593,0.00289201736450195,0.0000526770190416011
594,0.00275897979736328,0.0000506615638171899
595,0.00249338150024414,0.0000502763677079243
596,0.0021519660949707,0.0000511884189617906
597,0.00298595428466797,0.0000375151463754941
598,0.00264120101928711,0.0000320129661019017
599,0.0029149055480957,0.0000404441123173523
600,0.00254392623901367,0.000035934829153079
601,0.00240325927734375,0.0000370861613375678
602,0.00221443176269531,0.0000414587903768684
603,0.00236940383911133,0.0000409358521105475
604,0.00192689895629883,0.0000384290517968345
605,0.0027318000793457,0.000038608353665845
606,0.00206327438354492,0.0000348131948193682
607,0.00220108032226562,0.0000299502516071732
608,0.00196170806884766,0.0000289749697992026
609,0.00200366973876953,0.0000266010394475248
610,0.00236177444458008,0.0000276555274903982
611,0.00165510177612305,0.0000310649436181677
612,0.00201797485351562,0.0000371963548627022
613,0.00224065780639648,0.0000291275891245223
614,0.00201177597045898,0.0000250708217666152
615,0.00216436386108398,0.0000332018737719372
616,0.00167322158813477,0.000042823852924362
617,0.00194978713989258,0.0000412381445031029
618,0.00174760818481445,0.0000291305162752666
619,0.00187015533447266,0.0000313164414582104
620,0.00203084945678711,0.0000383683575574614
621,0.00152111053466797,0.0000415135974473663
622,0.00208234786987305,0.0000477135088352907
623,0.00171899795532227,0.000050914509461727
624,0.00179529190063477,0.000045681895683279
625,0.0015721321105957,0.0000471803802717744
626,0.00140666961669922,0.0000379437756806903
627,0.00162649154663086,0.0000370378485790938
628,0.00133037567138672,0.0000376972873230979
629,0.00171279907226562,0.0000462568910840162
630,0.00122594833374023,0.0000454298453882271
631,0.00130844116210937,0.0000435099209576431
632,0.00135660171508789,0.0000428145602736188
633,0.00134038925170898,0.0000341579861165284
634,0.00132369995117187,0.0000380178591108674
635,0.00147151947021484,0.000036090304789189
636,0.00160551071166992,0.0000395559344165019
637,0.00130939483642578,0.0000312882942906902
638,0.00137758255004883,0.0000292206261861069
639,0.0012354850769043,0.0000376172841805593
640,0.00134420394897461,0.0000431115908601369
641,0.00129079818725586,0.0000434118268322266
642,0.00121259689331055,0.0000537537409631422
643,0.00119304656982422,0.0000537907399730925
644,0.00119113922119141,0.000042705552926173
645,0.00140190124511719,0.0000494544734064081
646,0.00139236450195312,0.0000454110729826151
647,0.00124263763427734,0.0000400557404221313
648,0.00122594833374023,0.0000418986312983889
649,0.00106573104858398,0.0000599773200400566
650,0.00111675262451172,0.0000503294787502844
651,0.00123167037963867,0.0000437392513102288
652,0.00105094909667969,0.0000502876726273908
653,0.00111770629882812,0.0000483196294096802
654,0.000406265258789063,0.0000421657260714001
655,0.00548124313354492,0.0000319480895996094
656,0.00488376617431641,0.0000373579927173632
657,-0.00790023803710938,0.0000388995091238271
658,0.00122499465942383,0.0000357373465014491
659,0.000504493713378906,0.0000392232983246918
660,0.00081634521484375,0.0000388051415284324
661,0.000894069671630859,0.0000457925072667484
662,0.000906944274902344,0.0000477516167703508
663,0.000919818878173828,0.0000531250952605181
664,0.000856876373291016,0.0000388322316579863
665,0.000921726226806641,0.0000417334680310079
666,0.000855445861816406,0.0000400046199157946
667,0.000916004180908203,0.0000425969338504059
668,0.000776767730712891,0.0000482254252368095
669,0.000617504119873047,0.0000346642904340853
670,0.000647544860839844,0.0000294439705670892
671,0.000699520111083984,0.0000410979968858587
672,0.000643253326416016,0.0000352359752917068
673,0.000386238098144531,0.0000292259753218251
674,0.000596523284912109,0.0000278327525091409
675,0.000624179840087891,0.0000294174133590454
676,0.000596046447753906,0.0000347968628636846
677,0.000737190246582031,0.0000310750060274718
678,0.000758647918701172,0.0000349964041406395
679,0.000788211822509766,0.0000339936738529593
680,0.00081634521484375,0.0000442444760250193
681,0.000945568084716797,0.0000433030103039077
682,0.000934600830078125,0.0000552637603548066
683,0.00103998184204102,0.0000351252958190225
684,0.00107288360595703,0.0000527912790137509
685,0.00106906890869141,0.0000442213443446659
686,0.000787734985351563,0.0000422391333692369
687,0.000688552856445313,0.0000472742620876469
688,0.000506401062011719,0.0000569994951592411
689,0.000505924224853516,0.0000414389049127284
690,0.000397205352783203,0.0000479725198003886
691,0.000573635101318359,0.0000364055099422958
692,0.000705718994140625,0.0000351430926582846
693,0.00089263916015625,0.0000322940583674342
694,0.000891685485839844,0.0000335111710182459
695,0.000935077667236328,0.0000321317135672665
696,0.000876903533935547,0.0000321361359510312
697,0.000966548919677734,0.0000421502201239158
698,0.000626564025878906,0.0000367605576206073
699,0.000512599945068359,0.0000430218381932568
700,0.000494480133056641,0.0000263924090359395
701,0.000658035278320313,0.0000338428433590681
702,0.0008087158203125,0.0000294120990399054
703,0.000879764556884766,0.0000305361988956172
704,0.000845909118652344,0.0000466033619799447
705,0.000630378723144531,0.0000469593823563107
706,0.000633716583251953,0.0000408058117023746
707,0.000667572021484375,0.0000324073912383007
708,0.000574588775634766,0.000026427384770978
709,0.000739097595214844,0.0000480684021978485
710,0.000798702239990234,0.0000399320871716391
711,0.00070953369140625,0.0000288363304323787
712,0.00057220458984375,0.000032533436018783
713,0.000523567199707031,0.0000420428704169409
714,0.000635147094726563,0.000037928791762055
715,0.000773906707763672,0.0000409566757755368
716,0.000689029693603516,0.0000358358273087615
717,0.000569343566894531,0.0000361611118119179
718,0.000554084777832031,0.0000456333409531544
719,0.000543594360351563,0.0000379055549826756
720,0.000755786895751953,0.0000409108497215303
721,0.000841617584228516,0.0000369110154731057
722,0.000692844390869141,0.0000377560492926808
723,0.000452518463134766,0.0000508251151175338
724,0.000430583953857422,0.0000363797377854238
725,0.000727653503417969,0.0000398850839316978
726,0.000846385955810547,0.0000346716688676557
727,0.000663280487060547,0.0000460154034271688
728,0.000428199768066406,0.0000402051775539519
729,0.000424861907958984,0.0000523881088553264
730,0.000741004943847656,0.000047443500082206
731,0.0010828971862793,0.0000345048606436778
732,0.000551223754882813,0.0000488961572854717
733,0.000324726104736328,0.0000517758209348312
734,0.000582695007324219,0.0000345805581588097
735,0.000943660736083984,0.0000333556027881763
736,0.000810623168945313,0.0000422646949320694
737,0.000360012054443359,0.0000362490340614262
738,0.000244140625,0.0000325264463450491
739,0.00100231170654297,0.000046473890982306
740,0.000976085662841797,0.0000401712312238433
741,0.000303745269775391,0.0000423627616764367
742,0.000091552734375,0.0000395803565396254
743,0.000715732574462891,0.0000505222414439989
744,0.00109195709228516,0.0000482725503032517
745,0.000319004058837891,0.0000475177259976634
746,0.0000152587890625,0.0000352786997486783
747,0.000826835632324219,0.0000429920993634648
748,0.00105571746826172,0.000036908705382325
749,0.000274658203125,0.0000422694019549948
750,0.0000529289245605469,0.0000439738493062293
751,0.000955581665039063,0.0000424559161021903
752,0.000847339630126953,0.0000523642324397833
753,0.00003814697265625,0.0000550235783584125
754,0.000240802764892578,0.0000427501199974203
755,0.00121879577636719,0.0000315028451078763
756,0.000592231750488281,0.0000341246872334753
757,-0.0000972747802734375,0.000041743682218727
758,0.000752925872802734,0.0000313762835793268
759,0.0011591911315918,0.0000301035912340776
760,-0.000109672546386719,0.0000283823274307436
761,0.00000429153442382813,0.000038565633075227
762,0.00101613998413086,0.0000376112393011726
763,0.000428676605224609,0.0000457241833792635
764,-0.00028228759765625,0.0000449885182236305
765,0.000988960266113281,0.0000459003755611758
766,0.000632762908935547,0.0000392305437848671
767,-0.000647544860839844,0.0000491095975897417
768,0.000651836395263672,0.000059265123398246
769,0.00118255615234375,0.0000500690369250234
770,-0.0003204345703125,0.0000422377875953092
771,0.000198841094970703,0.0000459968700021999
772,0.00101995468139648,0.000046632626260367
773,-0.000320911407470703,0.0000471285449443033
774,-0.000120162963867187,0.0000575266039258231
775,0.00108146667480469,0.0000416857687295664
776,-0.000286579132080078,0.0000348686662494255
777,-0.000179767608642578,0.0000497409956608785
778,0.00113582611083984,0.0000564201334295236
779,-0.000153064727783203,0.0000458495726949598
780,-0.000203609466552734,0.0000448885899954312
781,0.00111961364746094,0.0000418938826172308
782,-0.000416755676269531,0.0000332805350994067
783,-0.0000371932983398437,0.0000428682970078246
784,0.00101709365844727,0.0000564664595201474
785,-0.000585079193115234,0.0000568976835289517
786,0.000174999237060547,0.0000491095975897417
787,0.000737667083740234,0.0000497535647421415
788,-0.000638484954833984,0.0000506121707452215
789,0.000595569610595703,0.0000390031226384881
790,0.000400543212890625,0.0000400834034745147
791,-0.000750541687011719,0.0000339451460996626
792,0.000852108001708984,0.0000291665936468663
793,-0.0000338554382324219,0.0000360398684926772
794,-0.000181674957275391,0.0000395214304328333
795,0.000876903533935547,0.0000451348473480706
796,-0.00079345703125,0.0000381864403163781
797,0.000156402587890625,0.0000353495244213715
798,0.000454902648925781,0.0000459028523115114
799,-0.000665664672851563,0.0000559750770219009
800,0.000657558441162109,0.0000412663924063164
801,-0.000382900238037109,0.0000456333409531544
802,-0.000187873840332031,0.0000369371864047211
803,0.000612258911132813,0.0000418701311328993
804,-0.000751972198486328,0.0000505840850129802
805,0.000556468963623047,0.0000570672686692943
806,-0.0000581741333007813,0.0000563677189590259
807,-0.00020599365234375,0.0000429954046936686
808,0.000452518463134766,0.0000435647571888638
809,-0.000834465026855469,0.0000327684632273267
810,0.000491619110107422,0.0000477539975065742
811,-0.000312328338623047,0.0000620071677449072
812,-0.000275611877441406,0.0000442084881812566
813,0.000378131866455078,0.0000344801407403421
814,-0.000549793243408203,0.000036177613509878
815,0.0005340576171875,0.0000437223532794036
816,-0.000582218170166016,0.0000559811697683611
817,0.0001373291015625,0.0000557970792336521
818,0.000080108642578125,0.0000488891815871288
819,-0.000382900238037109,0.0000444508407074792
820,0.000460147857666016,0.0000465093481069042
821,-0.000513553619384766,0.000049638038175784
822,0.000448703765869141,0.0000525895398463778
823,-0.000458240509033203,0.000036583076055177
824,0.000155925750732422,0.0000516207883449774
825,0.0000185966491699219,0.000059119154696897
826,-0.000157833099365234,0.0000588927673421029
827,0.000291347503662109,0.0000690508940857725
828,-0.000355243682861328,0.0000578802534028712
829,0.00051116943359375,0.0000453785157497646
830,-0.000476360321044922,0.0000399121531636077
831,0.000386238098144531,0.0000461375373150707
832,-0.000201225280761719,0.0000479985808793192
833,0.000279426574707031,0.0000426449469411539
834,0.00006866455078125,0.0000367435442134132
835,0.000301837921142578,0.0000469908443110671
836,0.000353336334228516,0.0000521499427801843
837,-0.0000643730163574219,0.0000403033191854771
838,0.000293731689453125,0.0000527945091881804
839,-0.0000100135803222656,0.0000381506977646673
840,0.000311374664306641,0.0000311936795530651
841,-0.000306129455566406,0.0000592459375371417
842,0.000469684600830078,0.0000617020649704812
843,-0.000129222869873047,0.0000584120653093275
844,0.000292778015136719,0.0000491743737971189
845,-0.000168323516845703,0.0000442239151288639
846,0.000331401824951172,0.000045739099113922
847,-0.000191211700439453,0.000033244647582892
848,0.000536441802978516,0.0000356888005740474
849,0.0000300407409667969,0.0000557124586019641
850,0.000279426574707031,0.0000592948492145709
851,-0.0000252723693847656,0.0000335289769424926
852,0.000366687774658203,0.0000317875543832759
853,-0.0000162124633789062,0.0000473751575226948
854,0.000376224517822266,0.0000405746114836202
855,-0.0000624656677246094,0.0000512938055265093
856,0.000183582305908203,0.0000515623931461459
857,-0.0000634193420410156,0.0000322755711652508
858,0.000340938568115234,0.0000371573653628748
859,-0.000168323516845703,0.0000426296153041525
860,0.000363349914550781,0.0000506548312343144
861,0.00000810623168945313,0.0000505087382387747
862,0.000193595886230469,0.0000529514728664672
863,0.0000247955322265625,0.0000435817163247966
864,0.000308990478515625,0.0000404974853660327
865,-0.0000286102294921875,0.0000483936861281024
866,0.000396251678466797,0.0000566513850570418
867,0.0000543594360351563,0.0000507254787868319
868,0.000170230865478516,0.0000427494551588085
869,0.000139713287353516,0.0000390890150679001
870,0.000107288360595703,0.0000586267359217415
871,-0.0000371932983398437,0.0000387362327500849
872,0.000243663787841797,0.0000364975160467692
873,0.000195026397705078,0.0000513026703017799
874,0.000149726867675781,0.0000600066930529982
875,0.000199317932128906,0.000071555767044356
876,-0.0000524520874023438,0.0000647094553134437
877,0.000375270843505859,0.0000524130589329141
878,0.000105381011962891,0.0000481286745981845
879,0.000342845916748047,0.0000551742009790057
880,0.000179290771484375,0.0000443086673306091
881,0.000251293182373047,0.0000511017285663168
882,0.000168323516845703,0.0000518822055885706
883,0.000268936157226562,0.000047443500082206
884,0.000174045562744141,0.0000559313929165519
885,0.000227451324462891,0.0000661361277555729
886,0.000253200531005859,0.0000586102507126215
887,0.000117301940917969,0.0000537336451175228
888,0.000408172607421875,0.000057443541541847
889,0.000146389007568359,0.0000616246308488161
890,0.000391960144042969,0.0000722498777910781
891,0.000230312347412109,0.000068940495630579
892,0.000263214111328125,0.000049314046129912
893,0.000453472137451172,0.0000563737692696706
894,0.000118732452392578,0.000075704563027747
895,0.000402450561523438,0.0000712357051522764
896,0.000210285186767578,0.0000507926708139731
897,0.000415325164794922,0.0000465630935633463
898,0.000385761260986328,0.0000617757215145174
899,0.000393390655517578,0.0000637946817278557
900,0.00038909912109375,0.0000563021322526227
901,0.000334262847900391,0.0000545702577168187
902,0.000457763671875,0.0000567366090816816
903,0.000514984130859375,0.0000448835244207386
904,0.000483036041259766,0.0000427906556194731
905,0.000344753265380859,0.0000593331831009222
906,0.000475406646728516,0.0000550328752374783
907,0.000527858734130859,0.0000541236431476382
908,0.000496387481689453,0.0000520561184101585
909,0.000647544860839844,0.0000475237069069493
910,0.000597476959228516,0.0000511961916911
911,0.000758171081542969,0.0000503893027702763
912,0.000578403472900391,0.0000471972446051392
913,0.000603675842285156,0.0000542589564002015
914,0.000591754913330078,0.0000528418623941342
915,0.000615119934082031,0.0000655941465407721
916,0.000713348388671875,0.0000759219997508059
917,0.000703811645507813,0.0000653092855391911
918,0.000666141510009766,0.0000655941465407721
919,0.000562191009521484,0.0000543740738016598
920,0.000606060028076172,0.0000514995168638268
921,0.000687599182128906,0.0000553470129492906
922,0.000827789306640625,0.0000685419206180281
923,0.000683784484863281,0.0000633655405930703
924,0.000697612762451172,0.0000633870666520967
925,0.000772476196289063,0.0000689784135242691
926,0.000688076019287109,0.0000391006469726562
927,0.000871181488037109,0.0000349207941607993
928,0.000764846801757813,0.0000470126133303174
929,0.000940799713134766,0.0000539332126796213
930,0.000968456268310547,0.0000671206525983784
931,0.000809669494628906,0.000046637501855159
932,0.00103998184204102,0.0000540637456880556
933,0.000882625579833984,0.0000539606086671197
934,0.000909328460693359,0.0000580391333644075
935,0.00104856491088867,0.0000567305974678676
936,0.00108003616333008,0.0000575977049156863
937,0.00103330612182617,0.0000559313929165519
938,0.00115346908569336,0.0000671562123143981
939,0.00110960006713867,0.0000705300026325466
940,0.00112247467041016,0.0000698269367522639
941,0.00136232376098633,0.0000604766008993736
942,0.00117874145507812,0.0000866427681254111
943,0.00138378143310547,0.0000889937068732315
944,0.00118160247802734,0.0000776717820738991
945,0.00136375427246094,0.0000709270228416611
946,0.00145769119262695,0.0000840532857381085
947,0.00153589248657227,0.0000911420312404932
948,0.00140094757080078,0.000106988062741425
949,0.00144052505493164,0.0000811898406500145
950,0.00147819519042969,0.0000877509936841772
951,0.00159311294555664,0.0000810300538428441
952,0.00188064575195312,0.0000799566484567566
953,0.00177478790283203,0.0000974055887970253
954,0.00179386138916016,0.000108706322999795
955,0.0019984245300293,0.000117098235987053
956,0.00213766098022461,0.000119956535562263
957,0.0021514892578125,0.000141975811585613
958,0.002166748046875,0.0000895464127599818
959,0.00205850601196289,0.0000562667846679688
960,0.00215053558349609,0.0000549615589762614
961,0.0022587776184082,0.000109250875139365
962,0.00215435028076172,0.000113120005775257
963,0.00222587585449219,0.0000874525068091736
964,0.00213050842285156,0.000096808512819995
965,0.00226211547851562,0.0000846409461541242
966,0.00219535827636719,0.000106568571075334
967,0.00198554992675781,0.000110447262019162
968,0.0019373893737793,0.000129986893837561
969,0.00188112258911133,0.0000948342678491356
970,0.00182199478149414,0.00013305380253871
971,0.00192785263061523,0.00011414051364676
972,0.00169563293457031,0.000167618943819514
973,0.00142669677734375,0.000195761254475711
974,0.00162553787231445,0.000169984254198223
975,0.0017242431640625,0.000152665356999003
976,0.00120306015014648,0.00012244598874086
977,0.00146627426147461,0.000139360503234091
978,0.00138759613037109,0.000135837507742041
979,0.00156784057617187,0.000122475696023092
980,0.00157451629638672,0.000148295589579965
981,0.00118923187255859,0.000134048076535726
982,0.00131845474243164,0.000176875093644032
983,0.00110340118408203,0.000201611351891791
984,0.00109338760375977,0.000200584711822788
985,0.00118112564086914,0.000227758512048004
986,0.000723361968994141,0.000138506215544633
987,0.000536441802978516,0.000167640646278829
988,0.000696659088134766,0.00018655488269687
989,0.000383377075195312,0.000134964291155506
990,0.000418663024902344,0.00018613514222021
991,0.0000448226928710938,0.000221342857565145
992,0.000240802764892578,0.000276506351843569
993,0.000226974487304687,0.000216775857168652
994,0.0000605583190917969,0.000180277241140289
995,0.000176429748535156,0.000178747164658025
996,-0.000352382659912109,0.000202848118792388
997,-0.000329017639160156,0.000192901700947238
998,-0.000545978546142578,0.000237864804873049
999,-0.000484466552734375,0.000227242800055939
1000,-0.000306606292724609,0.000165060059633789
1001,-0.000530242919921875,0.000149191366494475
1002,-0.000500679016113281,0.000203907968913064
1003,-0.000941276550292969,0.00019012831566252
1004,-0.000763893127441406,0.000244341707866631
1005,-0.00123262405395508,0.000322629585792295
1006,-0.00119972229003906,0.00031626348085446
1007,-0.000735759735107422,0.000289766372906997
1008,-0.00119209289550781,0.00028967847549374
1009,-0.000780105590820313,0.000217642603958273
1010,-0.00115537643432617,0.000194643035572951
1011,-0.00157785415649414,0.000243446734926413
1012,-0.00118017196655273,0.000264097197428451
1013,-0.000946044921875,0.000225660382770805
1014,-0.00121164321899414,0.000285446687390891
1015,-0.00144290924072266,0.000258352466939473
1016,-0.00180816650390625,0.000185130760117305
1017,-0.00182628631591797,0.000258084780603278
1018,-0.00154447555541992,0.000272910864784802
1019,-0.00175189971923828,0.000258584706574743
1020,-0.00193023681640625,0.000199466175638273
1021,-0.00212430953979492,0.000215812936771158
1022,-0.00233125686645508,0.000168978064144909
1023,-0.00190639495849609,0.000258795652665493
1024,-0.00168275833129883,0.000330390003036997
1025,-0.00189399719238281,0.00028876653586825
1026,-0.00245571136474609,0.000294770225478386
1027,-0.00218009948730469,0.000210932408156574
1028,-0.00236320495605469,0.000233539243545745
1029,-0.00246715545654297,0.000322387060130836
1030,-0.00266790390014648,0.000314539081290162
1031,-0.00226116180419922,0.000321641420431615
1032,-0.00228309631347656,0.00036373893557923
1033,-0.00335502624511719,0.000290744003483448
1034,-0.00340938568115234,0.000393847864507066
1035,-0.0031580924987793,0.000333573409902089
1036,-0.00301074981689453,0.000402906801047148
1037,-0.00300359725952148,0.000392432056363654
1038,-0.00312662124633789,0.000319775402915443
1039,-0.00351858139038086,0.000336586241595884
1040,-0.00291967391967773,0.000312263904360525
1041,-0.00334024429321289,0.000315837583087344
1042,-0.00369834899902344,0.000477508072929956
1043,-0.00389623641967773,0.00042425539414328
1044,-0.00425577163696289,0.000520241358729191
1045,-0.00397729873657227,0.000509972380586804
1046,-0.00380992889404297,0.000400488713507709
1047,-0.00344705581665039,0.000347388878619979
1048,-0.0048670768737793,0.000333235149868179
1049,-0.00498771667480469,0.000345277519552599
1050,-0.00445938110351563,0.000412349188777973
1051,-0.00484180450439453,0.000538264463063264
1052,-0.00504398345947266,0.000548918898124818
1053,-0.00626087188720703,0.000661594330503252
1054,-0.00489187240600586,0.000728417416771944
1055,-0.00565910339355469,0.000492421124090221
1056,-0.00467681884765625,0.000465025522150286
1057,-0.00591468811035156,0.000456123592921876
1058,-0.00569009780883789,0.000530997089883585
1059,-0.00562191009521484,0.000714968305690589
1060,-0.00563383102416992,0.000786345968314052
1061,-0.0076136589050293,0.000721310735449729
1062,-0.00740671157836914,0.000918336373637009
1063,-0.00593328475952148,0.000517984761340165
1064,-0.00581216812133789,0.000556122157757161
1065,-0.00740718841552734,0.000788748045856939
1066,-0.0067753791809082,0.000896721657867755
1067,-0.00684976577758789,0.00101479551481127
1068,-0.00628995895385742,0.000737234042743213
1069,-0.00497341156005859,0.000680536004968145
1070,-0.00596380233764648,0.000578137475761915
1071,-0.00702810287475586,0.000669172276328977
1072,-0.00667524337768555,0.000812700638848718
1073,-0.00550699234008789,0.000885913650378375
1074,-0.00507164001464844,0.00104525489491596
1075,-0.00685405731201172,0.0011770798412696
1076,-0.00759792327880859,0.000980903988624583
1077,-0.00710582733154297,0.000969038229218287
1078,-0.00799846649169922,0.0015740977446666
1079,-0.00665283203125,0.00121115286511666
1080,-0.00868892669677734,0.000917860871935976
1081,-0.00744295120239258,0.000797153080777038
1082,-0.00631237030029297,0.00125616538708213
1083,-0.00704145431518555,0.00144850037807618
1084,-0.0102295875549316,0.00225479265894359
1085,-0.0112462043762207,0.00176840741635997
1086,-0.00832939147949219,0.00117438167462018
1087,-0.00633430480957031,0.00153341340487829
1088,-0.0100407600402832,0.00125732329285226
1089,-0.0101408958435059,0.00127577529936207
1090,-0.0106081962585449,0.00109228312526714
1091,-0.0104265213012695,0.00223430567080304
1092,-0.0101442337036133,0.00157509584579917
1093,-0.0110907554626465,0.000932972326116906
1094,-0.00746631622314453,0.00140753541584245
1095,-0.0134382247924805,0.00139665855975328
1096,-0.0108966827392578,0.00197752964347197
1097,-0.00970220565795898,0.00237483824317103
1098,-0.00984477996826172,0.00213830030165894
1099,-0.0185284614562988,0.00184341076380937
1100,-0.0149145126342773,0.00183086394270158
