Wavelength (nm),Absorbance (AU),Std.Dev.
190,0.258709907531738,0.0000890294688625686
191,0.257290840148926,0.0000806785362219308
192,0.255109310150146,0.000112061804798645
193,0.253070831298828,0.000103656984360656
194,0.251055240631104,0.0000779231288046849
195,0.249200820922852,0.0000658018001384876
196,0.24746561050415,0.0000538541077088475
197,0.245589733123779,0.0000330775169296734
198,0.243622779846191,0.0000425709041496687
199,0.24140453338623,0.0000473031113145515
200,0.239025592803955,0.0000397473161408218
201,0.236392498016357,0.0000408190432720808
202,0.233533382415771,0.0000348760014448843
203,0.230161190032959,0.0000386032002411062
204,0.226451396942139,0.0000384815267984901
205,0.222214698791504,0.0000377763686780583
206,0.217095851898193,0.0000502175411020978
207,0.211519718170166,0.0000767130071619001
208,0.205224514007568,0.0000633368278006165
209,0.198404788970947,0.0000475356664679779
210,0.190998554229736,0.0000445963848209914
211,0.182986259460449,0.0000427474605809327
212,0.174496650695801,0.0000316953268089644
213,0.165536880493164,0.0000406662708508844
214,0.156509399414062,0.000044726207044076
215,0.14707612991333,0.000047419531453778
216,0.137784481048584,0.0000459845102357528
217,0.128357410430908,0.0000331221675621266
218,0.11933708190918,0.0000289322689422081
219,0.110357284545898,0.0000384223949179908
220,0.101811408996582,0.0000377741115083334
221,0.0936374664306641,0.0000282161110815165
222,0.086026668548584,0.0000328343156181773
223,0.0788259506225586,0.0000379557585566185
224,0.0722389221191406,0.0000400280582520511
225,0.0661497116088867,0.0000313019170483814
226,0.0606122016906738,0.0000359806734866776
227,0.0556612014770508,0.0000280245802232675
228,0.0511550903320313,0.0000330964149334602
229,0.0472540855407715,0.0000346888791093694
230,0.0437164306640625,0.0000315271949624461
231,0.0406861305236816,0.0000329742462532434
232,0.0379786491394043,0.0000421110928165089
233,0.0355591773986816,0.0000437535445466341
234,0.0335245132446289,0.0000387553048828045
235,0.0317134857177734,0.0000280848585560364
236,0.03021240234375,0.0000336584215003601
237,0.0288949012756348,0.0000296699444924978
238,0.0277018547058105,0.000035586718432583
239,0.0266690254211426,0.000031645968992744
240,0.0258312225341797,0.0000301625416513137
241,0.0250658988952637,0.0000253632996916364
242,0.0244593620300293,0.0000210757843468059
243,0.0238738059997559,0.0000299293671185684
244,0.0232992172241211,0.0000302721188086417
245,0.0228419303894043,0.0000287435326888052
246,0.0224089622497559,0.0000288240075296543
247,0.0219969749450684,0.0000344050483847569
248,0.0216541290283203,0.0000451814216036784
249,0.0213518142700195,0.0000485262348604117
250,0.0210442543029785,0.0000403977048295296
251,0.0208044052124023,0.0000376822053911788
252,0.0205469131469727,0.000036694780364172
253,0.0203380584716797,0.0000375348389694844
254,0.0201435089111328,0.000041879633343073
255,0.0199217796325684,0.0000454673669474038
256,0.0197911262512207,0.0000396735966135637
257,0.019556999206543,0.0000441647492327282
258,0.0194168090820312,0.000053221307404404
259,0.0193204879760742,0.0000459226615053611
260,0.0191330909729004,0.0000530490714429657
261,0.0190029144287109,0.0000412615709625804
262,0.018892765045166,0.000031914266075659
263,0.0187478065490723,0.0000403765928840953
264,0.0185012817382812,0.0000559069962480582
265,0.0183882713317871,0.0000569565967591667
266,0.0182299613952637,0.0000506783913612994
267,0.0179729461669922,0.0000383357503021309
268,0.0178442001342773,0.0000377055798142353
269,0.0176916122436523,0.0000491338986751359
270,0.0174193382263184,0.0000538456629861159
271,0.0173230171203613,0.0000512394753129167
272,0.0170941352844238,0.0000417096251989277
273,0.0168728828430176,0.0000479772592313229
274,0.0167236328125,0.0000412560600512116
275,0.0166234970092773,0.0000501132940971804
276,0.016298770904541,0.0000523316561354216
277,0.0161533355712891,0.000048663095151678
278,0.0160317420959473,0.0000548155372224182
279,0.0158381462097168,0.0000493935171607153
280,0.0156116485595703,0.0000435843248369237
281,0.0153489112854004,0.000050934601567179
282,0.0151925086975098,0.0000384601019966919
283,0.0150327682495117,0.0000404813404217083
284,0.0147967338562012,0.0000427913198179632
285,0.0146231651306152,0.0000405584972405651
286,0.0143980979919434,0.0000464200422465933
287,0.0141811370849609,0.0000510382847744258
288,0.0139760971069336,0.000037002532752506
289,0.0137529373168945,0.0000400834034745147
290,0.0135741233825684,0.0000348017632551461
291,0.0134100914001465,0.0000379160507754789
292,0.0131397247314453,0.0000432977592264247
293,0.0129170417785645,0.000053652126995221
294,0.012751579284668,0.0000348760014448843
295,0.0125279426574707,0.0000350840047886774
296,0.0123715400695801,0.000031593835398631
297,0.01220703125,0.00003207062239601
298,0.0120663642883301,0.0000319302922111191
299,0.0118408203125,0.0000378237381268538
300,0.0116934776306152,0.0000373321167847376
301,0.011530876159668,0.0000497067001942784
302,0.0114235877990723,0.0000491697497551888
303,0.0112371444702148,0.0000393751730082363
304,0.0109953880310059,0.0000521139603784983
305,0.0108928680419922,0.0000434314633817127
306,0.0107460021972656,0.0000439285827621005
307,0.0106372833251953,0.0000575177101221791
308,0.0104503631591797,0.0000447134960405954
309,0.0103335380554199,0.0000543803459240071
310,0.0101809501647949,0.0000487914170924625
311,0.0100069046020508,0.0000419846926733263
312,0.00981807708740234,0.0000402553373465422
313,0.00970029830932617,0.0000450440783324255
314,0.00953912734985352,0.0000378425190937434
315,0.00941085815429688,0.0000453346517835019
316,0.00934362411499023,0.0000643500534356588
317,0.00912380218505859,0.0000458929445081775
318,0.00901174545288086,0.0000367458646873309
319,0.00885677337646484,0.0000507378039864584
320,0.00880575180053711,0.0000405767128696165
321,0.00856828689575195,0.0000432530993287986
322,0.00846052169799805,0.000053763257426165
323,0.00829935073852539,0.0000520866844345908
324,0.00824403762817383,0.0000437808186765214
325,0.0080876350402832,0.0000443932577302479
326,0.00793838500976563,0.0000423325598447086
327,0.00781583786010742,0.0000515579832771495
328,0.00775480270385742,0.0000472128989494156
329,0.00756406784057617,0.0000562778963011812
330,0.00751590728759766,0.000052004770767301
331,0.00732612609863281,0.000047238175777647
332,0.00721025466918945,0.0000470524970409728
333,0.00702571868896484,0.0000459535962757978
334,0.00700807571411133,0.0000380582074721373
335,0.00690746307373047,0.0000418504411200075
336,0.00680255889892578,0.0000431102723217346
337,0.00665950775146484,0.000038539830498238
338,0.00651931762695313,0.000052371830661833
339,0.00645542144775391,0.0000452995300292969
340,0.00631093978881836,0.0000442123454228054
341,0.00628757476806641,0.000039599022117904
342,0.00619983673095703,0.0000456021889343461
343,0.0060114860534668,0.00003954515515559
344,0.00596427917480469,0.0000356999480990964
345,0.00588798522949219,0.0000521314094930804
346,0.00578498840332031,0.0000483102172587441
347,0.00562381744384766,0.0000394025925459893
348,0.00561904907226563,0.0000341554898263861
349,0.00551891326904297,0.0000451877117402281
350,0.0054478645324707,0.0000499690305777474
351,0.00534820556640625,0.0000514442989584026
352,0.00519418716430664,0.0000635536463987203
353,0.00525379180908203,0.0000633404176114733
354,0.00515556335449219,0.0000423594069807436
355,0.00491476058959961,0.0000655195771687228
356,0.00485801696777344,0.0000708018885517677
357,0.0048675537109375,0.0000518262986138399
358,0.00472545623779297,0.0000456221286768531
359,0.0046839714050293,0.0000549987789978927
360,0.00465059280395508,0.0000523240520794401
361,0.00451183319091797,0.0000630814290733177
362,0.00442790985107422,0.0000581663157729222
363,0.00428867340087891,0.0000657326551604888
364,0.00426292419433594,0.0000744217398353579
365,0.00409030914306641,0.0000664978438749707
366,0.00422239303588867,0.0000680942828974198
367,0.00407552719116211,0.0000538942020717402
368,0.00393867492675781,0.000081168834041417
369,0.0039372444152832,0.0000676319172350711
370,0.00402021408081055,0.000073593756182558
371,0.00375032424926758,0.0000841735772109428
372,0.00368928909301758,0.0000664773251260508
373,0.0036921501159668,0.0000875668306532077
374,0.00366020202636719,0.0000579381675357977
375,0.00371599197387695,0.0000549543188224275
376,0.00358867645263672,0.0000859339410887531
377,0.00361728668212891,0.0000971320919616245
378,0.00345706939697266,0.0000700707296060285
379,0.00332832336425781,0.0000756414646133554
380,0.00344181060791016,0.0000667912532611585
381,0.00322675704956055,0.0000529364417296829
382,0.00325250625610352,0.0000638855028485025
383,0.00325775146484375,0.0000707038727955895
384,0.00318002700805664,0.0000641660542259382
385,0.00313138961791992,0.0000573147553075654
386,0.00308847427368164,0.0000586461243526974
387,0.00296974182128906,0.0000647919761213408
388,0.00291824340820312,0.0000793615197043097
389,0.00272369384765625,0.0000729249127180949
390,0.00284957885742187,0.0000661979821959659
391,0.00295209884643555,0.0000501325734579003
392,0.00277280807495117,0.0000597541840570415
393,0.00256538391113281,0.0000485402895724829
394,0.00268125534057617,0.0000460129327351524
395,0.002655029296875,0.000057392061727284
396,0.00265741348266602,0.000080186658290885
397,0.00259160995483398,0.000058156542385342
398,0.00248432159423828,0.0000492990589850629
399,0.00227689743041992,0.0000561201074963505
400,0.00243902206420898,0.0000626165446135691
401,0.00225830078125,0.0000536807253651607
402,0.00222873687744141,0.0000651611541888794
403,0.00228500366210937,0.0000625947535759809
404,0.00229740142822266,0.0000713058912731729
405,0.00235128402709961,0.0000669595512683971
406,0.00205039978027344,0.0000744263225018408
407,0.00222921371459961,0.000100117636349643
408,0.00213718414306641,0.0000703718597960406
409,0.00210380554199219,0.0000627108849440521
410,0.00197601318359375,0.0000492240548142959
411,0.00201749801635742,0.0000650913286714074
412,0.00192928314208984,0.0000595865222083299
413,0.00193929672241211,0.0000433987308631717
414,0.00188922882080078,0.0000560136532234879
415,0.00185251235961914,0.0000414457630470807
416,0.00183486938476562,0.0000477647093511244
417,0.00183343887329102,0.0000712373010593291
418,0.00170040130615234,0.0000858518786234047
419,0.00165557861328125,0.0000551731707157926
420,0.00167942047119141,0.0000683359389066478
421,0.00177288055419922,0.0000777317698964101
422,0.00166082382202148,0.0000744629736806063
423,0.00150966644287109,0.000057785896182021
424,0.00158786773681641,0.0000451612872793258
425,0.00148916244506836,0.0000540784634910317
426,0.0015106201171875,0.0000576075731126706
427,0.00154590606689453,0.0000538118708428473
428,0.00140714645385742,0.000049836897412501
429,0.00162982940673828,0.0000478122885135846
430,0.00136661529541016,0.0000529439578315049
431,0.00132226943969727,0.0000592536126270514
432,0.0013117790222168,0.0000689306005757764
433,0.00140666961669922,0.0000697731880088265
434,0.00141716003417969,0.0000802475995647423
435,0.00118446350097656,0.0000622468858918108
436,0.0013422966003418,0.000064325314967872
437,0.00132894515991211,0.0000471225138800829
438,0.00135231018066406,0.0000528708990456858
439,0.00123405456542969,0.0000651367237721603
440,0.001190185546875,0.0000649497020816746
441,0.00118589401245117,0.0000540889737555453
442,0.00114774703979492,0.0000528332558771352
443,0.00123500823974609,0.0000486759425687495
444,0.00113868713378906,0.0000485402895724829
445,0.00115537643432617,0.000047034372274167
446,0.00114774703979492,0.0000411028375171602
447,0.001129150390625,0.0000419609925908996
448,0.00113725662231445,0.0000442765833107247
449,0.00112676620483398,0.0000495279809554085
450,0.000947952270507813,0.0000649041761748561
451,0.000937461853027344,0.0000735659447224041
452,0.00100469589233398,0.0000733818148829945
453,0.000990390777587891,0.0000572691154238557
454,0.00100326538085937,0.0000578380082641039
455,0.00102472305297852,0.0000593992509101786
456,0.00107812881469727,0.000047028329132942
457,0.00102996826171875,0.0000549087874240295
458,0.00095367431640625,0.0000618327449866003
459,0.00100088119506836,0.000074479766109921
460,0.000975608825683594,0.0000568367090343883
461,0.000913619995117188,0.0000766329386709644
462,0.000845909118652344,0.0000783015399486291
463,0.00096893310546875,0.0000649707032792751
464,0.0008697509765625,0.0000462298481754879
465,0.000824928283691406,0.0000496575020533842
466,0.000758647918701172,0.000066456800041902
467,0.000823497772216797,0.000062835848638112
468,0.000765323638916016,0.0000526694648467701
469,0.000714778900146484,0.0000697503729987076
470,0.000814914703369141,0.0000568377091436437
471,0.000715255737304688,0.0000589545079092791
472,0.000761508941650391,0.000064558186706834
473,0.000713348388671875,0.0000685667958062772
474,0.000803947448730469,0.0000748922814836993
475,0.000921249389648438,0.0000799125587658074
476,0.000756740570068359,0.0000600616104324934
477,0.000787258148193359,0.0000486490759181364
478,0.000773906707763672,0.0000521597518544327
479,0.000758171081542969,0.0000425929303164585
480,0.000685691833496094,0.0000607990750630168
481,0.000668048858642578,0.0000695496051130365
482,0.000700950622558594,0.0000635250186286197
483,0.000662803649902344,0.0000666941617587023
484,0.000608921051025391,0.000051958842706273
485,0.00182342529296875,0.0000695316220215626
486,-0.0000810623168945313,0.0000621884140786203
487,0.000580787658691406,0.000075240612512031
488,0.000566959381103516,0.0000721853345225507
489,0.000658512115478516,0.0000665713174577763
490,0.000616073608398438,0.0000584529231166881
491,0.000622749328613281,0.0000698952844659301
492,0.00058746337890625,0.000082385263158261
493,0.00058746337890625,0.0000852298901973972
494,0.000589847564697266,0.0000693449771933694
495,0.000689983367919922,0.0000753613937319438
496,0.000658035278320313,0.0000753840186667751
497,0.000535964965820313,0.000104665484677877
498,0.000645160675048828,0.0000839802159136196
499,0.000604629516601563,0.0000766344221810489
500,0.000467300415039063,0.0000575196866418313
501,0.000451087951660156,0.0000529750846073708
502,0.000504493713378906,0.0000582922455620075
503,0.000501632690429688,0.0000658553375619942
504,0.000626087188720703,0.0000689174049593691
505,0.000534534454345703,0.0000501609119978376
506,0.000470161437988281,0.0000504997340960454
507,0.000471591949462891,0.0000523370869275757
508,0.000523567199707031,0.0000580146432441711
509,0.000467777252197266,0.000060119314241312
510,0.000515937805175781,0.0000676756081941864
511,0.000452995300292969,0.0000725654666462623
512,0.000543117523193359,0.0000633888601603846
513,0.000518798828125,0.0000662889406433374
514,0.000444889068603516,0.0000575424117381438
515,0.00040435791015625,0.0000583224672371699
516,0.000433921813964844,0.0000769586219857484
517,0.000360965728759766,0.0000696949340231682
518,0.000423431396484375,0.000076751528866748
519,0.000319004058837891,0.0000560055341260075
520,0.000309944152832031,0.0000680274681014669
521,0.000462055206298828,0.0000795546746329992
522,0.000414371490478516,0.0000686181759527201
523,0.000340938568115234,0.0000791463502535717
524,0.000400543212890625,0.0000653092855391911
525,0.000329494476318359,0.0000731257416993081
526,0.000332832336425781,0.0000663369438135969
527,0.000311851501464844,0.0000791664574799027
528,0.000327110290527344,0.0000799552265881469
529,0.000439643859863281,0.0000635196494853376
530,0.000343799591064453,0.0000687472851664924
531,0.000376701354980469,0.0000612025647277286
532,0.000297069549560547,0.0000843894003329652
533,0.000308036804199219,0.0000789680341828647
534,0.000359058380126953,0.00005898920858075
535,0.000308513641357422,0.0000605395430645909
536,0.000337600708007812,0.0000526813352380147
537,0.000272274017333984,0.000076395206009781
538,0.000361442565917969,0.0000626637325324994
539,0.000269412994384766,0.0000614602218523365
540,0.000268936157226562,0.0000495394566572598
541,0.000343799591064453,0.0000558429042824953
542,0.000185012817382812,0.0000510015180859411
543,0.000297069549560547,0.0000640986919933567
544,0.000274181365966797,0.0000600521455017836
545,0.000268459320068359,0.0000436286456811694
546,0.000256061553955078,0.0000384615799523845
547,0.000304698944091797,0.0000479594839503485
548,0.000179767608642578,0.0000463195207389103
549,0.000219345092773437,0.0000589766801379396
550,0.000239849090576172,0.0000703831674967935
551,0.000235557556152344,0.0000640880493790109
552,0.0002899169921875,0.0000713505192214743
553,0.000219821929931641,0.0000624875037778484
554,0.000250339508056641,0.0000587671571228969
555,0.000285148620605469,0.0000657655080895842
556,0.000239372253417969,0.0000620273323799672
557,0.000213146209716797,0.0000469206309897799
558,0.00019073486328125,0.0000525862970814697
559,0.000210762023925781,0.0000644436201805162
560,0.000216007232666016,0.0000692186253037417
561,0.000117778778076172,0.0000489890716823999
562,0.000239372253417969,0.000039818044136618
563,0.000155925750732422,0.0000707713736101223
564,0.000210285186767578,0.0000832814901146729
565,0.00012969970703125,0.0000688464351894099
566,0.000101089477539062,0.0000555295245749808
567,0.000189304351806641,0.0000591777774943995
568,0.000143051147460937,0.0000506099244602085
569,0.000161647796630859,0.0000347445490163131
570,0.000207424163818359,0.0000328620034617129
571,0.000208854675292969,0.0000512793969982193
572,0.00000905990600585938,0.0000497227076890628
573,0.000204086303710937,0.0000407430774609893
574,0.0000920295715332031,0.0000430581577585957
575,0.000124931335449219,0.0000387729016016572
576,0.000215530395507812,0.0000492967528660587
577,0.000103473663330078,0.0000381492077649493
578,0.0000166893005371094,0.0000355883157179103
579,0.0000452995300292969,0.0000439272887468483
580,0.000147819519042969,0.0000390220643283172
581,0.000212669372558594,0.0000446982380650477
582,-0.0000658035278320313,0.0000464934568777028
583,-0.0000443458557128906,0.0000547678146948289
584,0.000234127044677734,0.0000397330123703353
585,0.0000967979431152344,0.000036194107684348
586,0.0000104904174804687,0.0000441390001929737
587,0.00011444091796875,0.000040284979936399
588,-0.0000166893005371094,0.0000533514513020602
589,0.0000739097595214844,0.0000525073280751069
590,0.0000762939453125,0.0000338898403372253
591,0.0000462532043457031,0.000035436252144578
592,0.000288486480712891,0.0000429716006415091
593,0.000103473663330078,0.000057545375219519
594,0.0000882148742675781,0.0000486490759181364
595,0.0000710487365722656,0.0000502967147334833
596,-0.0000171661376953125,0.000039597586616567
597,0.0000796318054199219,0.0000392971393385266
598,0.000030517578125,0.0000422761253643416
599,0.000107765197753906,0.0000370846285665421
600,0.0000276565551757812,0.00002781743088339
601,0.00002288818359375,0.0000385479417406479
602,0.0000414848327636719,0.0000469424325696707
603,-0.0000262260437011719,0.0000472610336399511
604,-0.0000472068786621094,0.0000452920003957524
605,0.000140666961669922,0.0000486432333783435
606,-0.0000195503234863281,0.0000454661167276483
607,-0.00000476837158203125,0.0000380126256320415
608,-0.00006103515625,0.0000350377984059625
609,0.00000715255737304688,0.0000303354266153885
610,0.0000109672546386719,0.0000342527103349075
611,-0.000111579895019531,0.0000384364469766965
612,-0.0000247955322265625,0.000046709357763895
613,-0.0000262260437011719,0.0000491431530705987
614,-0.000003814697265625,0.0000499371683761069
615,0.000011444091796875,0.0000617941219323783
616,-0.000133514404296875,0.0000538836538160911
617,-0.0000057220458984375,0.0000454448577294602
618,-0.000135898590087891,0.0000398751064246169
619,-0.0000772476196289063,0.00004614492897953
620,-0.0000338554382324219,0.0000530887030728439
621,-0.000100612640380859,0.0000534940313707127
622,-0.0000181198120117187,0.0000439117575894695
623,-0.0000658035278320313,0.0000529342940760021
624,-0.0000786781311035156,0.0000476682160935559
625,-0.0000982284545898438,0.0000455223426241403
626,-0.000095367431640625,0.0000439363460532739
627,-0.0000562667846679688,0.0000344033961625847
628,-0.000141620635986328,0.0000553429046496302
629,-0.0000481605529785156,0.0000545254481252376
630,-0.000155448913574219,0.0000515094498004694
631,-0.0000891685485839844,0.0000605789660002031
632,-0.0000567436218261719,0.0000644153879376934
633,-0.000104427337646484,0.0000440164865527881
634,-0.00008392333984375,0.0000460857624686327
635,-0.0000910758972167969,0.0000581037376851189
636,-0.0000634193420410156,0.0000508586564101158
637,-0.0000858306884765625,0.0000553264684003463
638,-0.0000591278076171875,0.0000529128127448375
639,-0.000134468078613281,0.0000601344405000093
640,-0.000183582305908203,0.0000668235857465733
641,-0.000110626220703125,0.0000552514159682884
642,-0.000139236450195312,0.0000507971471223288
643,-0.0000905990600585938,0.0000447363732465131
644,-0.000111579895019531,0.0000429577088529785
645,-0.0000743865966796875,0.000051458661313834
646,-0.000195503234863281,0.0000537547984311198
647,-0.000112056732177734,0.0000544785148986324
648,-0.000189781188964844,0.0000518854923581522
649,-0.000102996826171875,0.0000699716896560253
650,-0.000115871429443359,0.000060968064149569
651,-0.0000886917114257813,0.0000430885106128271
652,-0.000141143798828125,0.0000438249408039416
653,-0.000132083892822266,0.000050222068671967
654,-0.000189304351806641,0.0000543594360351563
655,0.000738143920898438,0.0000334593953092941
656,0.000337123870849609,0.0000422512434056523
657,-0.00172281265258789,0.0000602770076127301
658,-0.0000891685485839844,0.0000539247803448794
659,-0.000212192535400391,0.0000584704248656057
660,-0.000144004821777344,0.0000548331632976211
661,-0.000154018402099609,0.0000681376773809862
662,-0.000175952911376953,0.0000587632879352097
663,-0.000196456909179687,0.0000564865894482476
664,-0.0001983642578125,0.0000528181910978664
665,-0.000201225280761719,0.0000554660212705459
666,-0.000218868255615234,0.0000472490045645342
667,-0.0000967979431152344,0.0000494096261191479
668,-0.000195026397705078,0.0000584791737758318
669,-0.00017547607421875,0.0000478301184973661
670,-0.00016021728515625,0.0000532084891702575
671,-0.000185012817382812,0.0000504422949026657
672,-0.000180721282958984,0.0000459783291065851
673,-0.000187873840332031,0.0000529546932692597
674,-0.000175952911376953,0.0000604060654530072
675,-0.000173568725585937,0.0000564644461326329
676,-0.000199794769287109,0.000071173436865166
677,-0.000153064727783203,0.0000717525061099688
678,-0.000161170959472656,0.000052620876271188
679,-0.000153541564941406,0.0000578566785243956
680,-0.000191688537597656,0.0000454110729826151
681,-0.000213146209716797,0.000044008737398674
682,-0.000226020812988281,0.0000490029936468781
683,-0.000196456909179687,0.0000584286064350538
684,-0.000174045562744141,0.0000437028474326691
685,-0.000225543975830078,0.0000327884061966187
686,-0.000171661376953125,0.0000379347860397316
687,-0.000197887420654297,0.0000440345626091583
688,-0.000185489654541016,0.0000400585785374445
689,-0.000197410583496094,0.0000619668187894562
690,-0.000174045562744141,0.0000398494385066532
691,-0.000200271606445312,0.0000473511543000349
692,-0.000256061553955078,0.0000469182079666695
693,-0.000212669372558594,0.0000514984130859375
694,-0.000216960906982422,0.0000414985327187244
695,-0.000166893005371094,0.0000500213315637943
696,-0.000154972076416016,0.0000483408000489009
697,-0.000213146209716797,0.0000550483665467893
698,-0.000243663787841797,0.0000545421257622173
699,-0.000162124633789062,0.0000494923893699823
700,-0.000307083129882812,0.000032942339162113
701,-0.000229358673095703,0.0000372261428086182
702,-0.000214576721191406,0.0000567225809916955
703,-0.000152587890625,0.0000646514522317398
704,-0.000173568725585937,0.0000541435942424364
705,-0.000220298767089844,0.0000514951016103153
706,-0.000259876251220703,0.000039901470134224
707,-0.000156879425048828,0.0000445223955163477
708,-0.000258922576904297,0.0000535131549749198
709,-0.000268936157226562,0.000049494686373644
710,-0.000283241271972656,0.0000555029030028397
711,-0.000266551971435547,0.0000420043197542898
712,-0.000233650207519531,0.0000516461091140906
713,-0.00023651123046875,0.0000600313174013157
714,-0.000231266021728516,0.0000485402895724829
715,-0.000202178955078125,0.0000608672873362369
716,-0.000241756439208984,0.0000508910586462508
717,-0.000264644622802734,0.0000328325843526878
718,-0.000232219696044922,0.0000386436729218677
719,-0.000325679779052734,0.0000444393300811589
720,-0.000307559967041016,0.0000410135398487991
721,-0.000299930572509766,0.0000458743616093438
722,-0.000329017639160156,0.0000438625393104743
723,-0.000349044799804687,0.0000551309133471177
724,-0.000336170196533203,0.0000449430088645604
725,-0.000326633453369141,0.0000446014830073265
726,-0.000327110290527344,0.0000437989919942748
727,-0.000395298004150391,0.0000482242465201207
728,-0.000344753265380859,0.0000446142259243624
729,-0.000363349914550781,0.0000534961565532164
730,-0.000452041625976563,0.000055631796513285
731,-0.000402927398681641,0.0000555274772148704
732,-0.000474929809570313,0.000079694597534311
733,-0.000390529632568359,0.0000677914207555691
734,-0.000435352325439453,0.0000465826219913874
735,-0.000452041625976563,0.0000532458670612252
736,-0.000446796417236328,0.0000438236437283718
737,-0.00051116943359375,0.0000492275190607242
738,-0.000553131103515625,0.0000628720235683614
739,-0.000443935394287109,0.0000516064711103809
740,-0.000494480133056641,0.0000432662393781125
741,-0.000502109527587891,0.0000467057067412792
742,-0.000477790832519531,0.0000489182404344463
743,-0.000531196594238281,0.000059964050092195
744,-0.000453948974609375,0.0000674147240946614
745,-0.000455379486083984,0.0000566543951463113
746,-0.000489234924316406,0.0000521957026886391
747,-0.000493049621582031,0.000049748994534559
748,-0.000485420227050781,0.0000512017429181905
749,-0.000462532043457031,0.0000618529664851074
750,-0.000438690185546875,0.000051023804090101
751,-0.000452518463134766,0.0000624274362527967
752,-0.000431060791015625,0.0000431129093582138
753,-0.000407218933105469,0.0000443855743556156
754,-0.000458717346191406,0.000065900206380297
755,-0.000340461730957031,0.0000439803121520934
756,-0.000437736511230469,0.0000525300573498551
757,-0.000361442565917969,0.0000576736464779109
758,-0.000425815582275391,0.0000797715930305377
759,-0.000407218933105469,0.0000720181984677176
760,-0.000304698944091797,0.0000573504481423125
761,-0.000385284423828125,0.0000383890932086877
762,-0.000433444976806641,0.0000429517538539176
763,-0.000410556793212891,0.0000582951709249964
764,-0.000300884246826172,0.0000667282450406484
765,-0.000323772430419922,0.0000624401826777044
766,-0.000363349914550781,0.0000567035373186078
767,-0.000318527221679687,0.0000415826882046714
768,-0.000326633453369141,0.000055067982615912
769,-0.000325202941894531,0.0000518230080900148
770,-0.000272274017333984,0.0000614509723418694
771,-0.000182628631591797,0.0000588087348132
772,-0.00029754638671875,0.0000489983534315704
773,-0.000342369079589844,0.0000525754864206064
774,-0.000290393829345703,0.000065932975822415
775,-0.000320911407470703,0.000051877822905205
776,-0.00026702880859375,0.0000499940509191817
777,-0.000237941741943359,0.0000543500239606272
778,-0.000217437744140625,0.0000591518368654616
779,-0.000222682952880859,0.000060360879510676
780,-0.000276565551757812,0.0000554557719918084
781,-0.000229358673095703,0.0000575236394773954
782,-0.000261783599853516,0.0000496586467497814
783,-0.000235557556152344,0.0000537896832117008
784,-0.000161170959472656,0.0000443137986180995
785,-0.000175952911376953,0.0000551236954369294
786,-0.000187397003173828,0.000058297121085436
787,-0.000250339508056641,0.0000503441591464761
788,-0.00020599365234375,0.0000578094999257443
789,-0.000196933746337891,0.0000611821282632594
790,-0.000207424163818359,0.0000611040352550739
791,-0.000180721282958984,0.0000565559827011932
792,-0.000214099884033203,0.0000479084915934713
793,-0.000277042388916016,0.000054014306590475
794,-0.000213146209716797,0.0000574088967456234
795,-0.000184059143066406,0.0000676856867181362
796,-0.000224113464355469,0.0000477242297676438
797,-0.000245094299316406,0.0000523837684983302
798,-0.000220775604248047,0.0000617389042268353
799,-0.000200271606445312,0.0000558693638453553
800,-0.000216007232666016,0.0000612211374118959
801,-0.00028228759765625,0.000056374777591648
802,-0.000254631042480469,0.0000475942248765877
803,-0.000288963317871094,0.0000564765253810613
804,-0.000196456909179687,0.0000595464422253713
805,-0.000212669372558594,0.0000590315928113326
806,-0.000176906585693359,0.0000541939642921629
807,-0.000232696533203125,0.0000552689030354511
808,-0.000256538391113281,0.0000568717023938969
809,-0.00026702880859375,0.0000711702421511188
810,-0.000370502471923828,0.0000629081776964605
811,-0.000244617462158203,0.0000641642824416404
812,-0.000379562377929687,0.0000748391324588489
813,-0.000299453735351562,0.0000732996585989565
814,-0.000269412994384766,0.000061291662285119
815,-0.0002593994140625,0.0000569176609473296
816,-0.000333309173583984,0.0000605273355235391
817,-0.000270366668701172,0.0000553552286338944
818,-0.000303268432617187,0.0000455797462972844
819,-0.000292778015136719,0.0000534919061037776
820,-0.000319480895996094,0.0000547013488758087
821,-0.000372886657714844,0.0000820852696778462
822,-0.000355720520019531,0.0000535089058757409
823,-0.000345706939697266,0.0000500576826293641
824,-0.000339508056640625,0.000055348039976558
825,-0.0003509521484375,0.0000616080251604762
826,-0.000364303588867187,0.0000543500239606272
827,-0.000376224517822266,0.0000438301287223739
828,-0.000502109527587891,0.0000551917125111459
829,-0.000457763671875,0.0000502073525771016
830,-0.000447750091552734,0.0000514431939957443
831,-0.000547885894775391,0.0000619704879619016
832,-0.000497341156005859,0.0000813311438871636
833,-0.000518798828125,0.0000711798258631021
834,-0.000585556030273438,0.0000642510424144801
835,-0.000527381896972656,0.0000506346281145412
836,-0.000524520874023438,0.0000632038614632219
837,-0.000571727752685547,0.000058726517938006
838,-0.000573635101318359,0.0000604248829561748
839,-0.0006103515625,0.0000598178863756498
840,-0.000538349151611328,0.0000445543025246399
841,-0.000462055206298828,0.0000730650841765863
842,-0.000443935394287109,0.0000773138186466503
843,-0.000463008880615234,0.000062785168719685
844,-0.000498771667480469,0.0000473667577783839
845,-0.000459194183349609,0.0000474997787513078
846,-0.000535488128662109,0.0000395444364337239
847,-0.000508785247802734,0.0000473259378137777
848,-0.000531673431396484,0.0000647989943163485
849,-0.000449657440185547,0.0000718902193822266
850,-0.000470638275146484,0.0000670867686785057
851,-0.000421047210693359,0.0000548352365810436
852,-0.000424861907958984,0.0000470851040394861
853,-0.000479221343994141,0.0000622249654007361
854,-0.00034332275390625,0.0000660948593030564
855,-0.000402450561523438,0.0000756204201085744
856,-0.0003814697265625,0.0000680759153657441
857,-0.000360965728759766,0.0000561373239622552
858,-0.000357627868652344,0.0000530083378453566
859,-0.000389575958251953,0.0000476801394075055
860,-0.000270843505859375,0.0000452053194662536
861,-0.000374317169189453,0.0000530833491762528
862,-0.000325202941894531,0.0000606914618556874
863,-0.000275611877441406,0.0000649584534058155
864,-0.000328540802001953,0.0000632092574302884
865,-0.000348091125488281,0.0000880278073060175
866,-0.00032806396484375,0.0000678467394894422
867,-0.00029754638671875,0.0000633978269407557
868,-0.000234127044677734,0.0000505953211767415
869,-0.000294685363769531,0.0000664773251260508
870,-0.000381946563720703,0.0000602760645688436
871,-0.0002593994140625,0.000060575212540303
872,-0.000215530395507812,0.000046659435727074
873,-0.000268936157226562,0.0000612118517742195
874,-0.000236034393310547,0.0000663575059705655
875,-0.000162124633789062,0.0000711894082849001
876,-0.000280857086181641,0.0000817271624970571
877,-0.000244140625,0.0000754518527655064
878,-0.000193119049072266,0.0000706089412287406
879,-0.000219345092773437,0.0000651332329645921
880,-0.000182151794433594,0.000050027013158929
881,-0.0002899169921875,0.0000503362548497766
882,-0.000194072723388672,0.0000482548837965044
883,-0.000231266021728516,0.0000586170393013875
884,-0.000193119049072266,0.0000630976470005894
885,-0.000163555145263672,0.0000587216780664035
886,-0.000123977661132812,0.000056422148398308
887,-0.000217437744140625,0.0000644894712145491
888,-0.000170230865478516,0.0000716240522823877
889,-0.000217437744140625,0.0000532650797632055
890,-0.000157356262207031,0.0000659691757412768
891,-0.000201225280761719,0.0000535205900867492
892,-0.000158309936523437,0.0000468017553344143
893,-0.000107765197753906,0.0000731241870067523
894,-0.000203132629394531,0.0000727047674276196
895,-0.000136375427246094,0.0000696671979916749
896,-0.000182628631591797,0.0000710567367453109
897,-0.000166893005371094,0.000066993499532223
898,-0.0001983642578125,0.0000610519177548167
899,-0.000144481658935547,0.0000695528742664903
900,-0.000188350677490234,0.0000612378480115462
901,-0.000205516815185547,0.0000578645378844162
902,-0.000226497650146484,0.0000583244164849182
903,-0.000186443328857422,0.0000688877055807181
904,-0.000248908996582031,0.0000933627185861238
905,-0.000254154205322266,0.0000665098102218619
906,-0.000231266021728516,0.0000754171896268513
907,-0.000150203704833984,0.00007290776216914
908,-0.000251293182373047,0.0000549574218622942
909,-0.000350475311279297,0.0000879037370437844
910,-0.00026702880859375,0.0000686248028469315
911,-0.000308990478515625,0.0000796446532889389
912,-0.000344276428222656,0.0000701388397529484
913,-0.000360965728759766,0.0000557318409295106
914,-0.000393390655517578,0.0000756850381874869
915,-0.000406742095947266,0.0000499508260940328
916,-0.000483989715576172,0.0000740342476171302
917,-0.000322341918945312,0.0000751105560829999
918,-0.000443935394287109,0.0000735102902360197
919,-0.000527381896972656,0.0000748801364610809
920,-0.000596523284912109,0.0000699082955018704
921,-0.000663280487060547,0.0000704687240673491
922,-0.000581264495849609,0.0000566232831741945
923,-0.000688552856445313,0.00007294829333215
924,-0.000661849975585938,0.0000771843097416057
925,-0.000722408294677734,0.00008228308412835
926,-0.000911235809326172,0.0000874317045950807
927,-0.000992298126220703,0.0000689190545495882
928,-0.00104713439941406,0.0000704606571307916
929,-0.00105524063110352,0.0000741431949081709
930,-0.00110292434692383,0.0000612879524729142
931,-0.00120687484741211,0.0000954794226167133
932,-0.00139522552490234,0.0000683642150451216
933,-0.00142526626586914,0.0000756219234817042
934,-0.00149345397949219,0.00009979234558353
935,-0.00165367126464844,0.0000805191466769757
936,-0.00161123275756836,0.0000902470224128008
937,-0.00167322158813477,0.0000715970635771305
938,-0.00175809860229492,0.0000730619721769181
939,-0.00188112258911133,0.0000842586235470262
940,-0.00200939178466797,0.0000718111060982388
941,-0.00205039978027344,0.0000638694849762156
942,-0.00217294692993164,0.0000624984189435164
943,-0.00228214263916016,0.0000728672084613536
944,-0.00230598449707031,0.0000751408218520821
945,-0.00244903564453125,0.000096808512819995
946,-0.00258922576904297,0.0000799523827750682
947,-0.00274944305419922,0.000103234969440472
948,-0.00281810760498047,0.0000944257978988311
949,-0.00294971466064453,0.000086726703982465
950,-0.0031585693359375,0.000108467614807991
951,-0.00321388244628906,0.0000830080228690679
952,-0.00348711013793945,0.0000939502319353511
953,-0.00373125076293945,0.00013594793795688
954,-0.00390052795410156,0.000122483121717829
955,-0.00425815582275391,0.0000960942230683018
956,-0.00431108474731445,0.000127771005697005
957,-0.00457191467285156,0.000101808920870203
958,-0.00473403930664063,0.000100058571232636
959,-0.00497817993164063,0.0000904760026930193
960,-0.00502490997314453,0.0000992188019076534
961,-0.00501775741577148,0.000110055420997155
962,-0.00522994995117188,0.000139422488361788
963,-0.00514936447143555,0.000150749939015577
964,-0.00514125823974609,0.000105317342519985
965,-0.00524520874023438,0.000141764256514385
966,-0.00494575500488281,0.000123999667048638
967,-0.00487661361694336,0.000129052961914347
968,-0.00497913360595703,0.000149772418437199
969,-0.00469255447387695,0.000151918851865691
970,-0.00470209121704102,0.000178258031770079
971,-0.00435876846313477,0.00012122547335955
972,-0.00431156158447266,0.000132838308494946
973,-0.00427150726318359,0.000109585437181269
974,-0.003997802734375,0.000112908756235959
975,-0.00386953353881836,0.000140144704091116
976,-0.0041046142578125,0.000135216759278357
977,-0.00391101837158203,0.0000935573461031397
978,-0.00374126434326172,0.000121743913225436
979,-0.00353813171386719,0.000140397573595574
980,-0.00341129302978516,0.000126061893227408
981,-0.00306606292724609,0.000129338068834004
982,-0.00321340560913086,0.000143593712898212
983,-0.00287199020385742,0.000133990392987697
984,-0.00246953964233398,0.000144213090062732
985,-0.002685546875,0.0000935087272015021
986,-0.00242853164672852,0.000112640604743952
987,-0.00242376327514648,0.000135860939833646
988,-0.00185441970825195,0.000119865518608388
989,-0.00162267684936523,0.000193005398875823
990,-0.00178432464599609,0.000193236162443755
991,-0.00179195404052734,0.000205405596844989
992,-0.00153636932373047,0.00012536011707052
993,-0.00161027908325195,0.000101679304789145
994,-0.00105428695678711,0.000193786057899438
995,-0.000970363616943359,0.000203430154893693
996,-0.000956535339355469,0.000163482143692512
997,-0.000627517700195313,0.000204023904263063
998,-0.000837802886962891,0.000178038505234654
999,-0.000507831573486328,0.000176241490730614
1000,-0.000344276428222656,0.000169434944038892
1001,-0.0000963211059570313,0.000185783002269537
1002,-0.000273704528808594,0.00024053019970303
1003,-0.000244140625,0.000189965604194407
1004,0.000114917755126953,0.000238399504852234
1005,0.000230312347412109,0.000207563879379298
1006,0.000102043151855469,0.000217215943564408
1007,0.000172138214111328,0.000254057119552712
1008,0.000588893890380859,0.000206949524054749
1009,0.000193119049072266,0.000241364400082869
1010,0.000579357147216797,0.000241138205730967
1011,0.000824928283691406,0.000321154693504325
1012,0.000725746154785156,0.000213827308002342
1013,0.000919818878173828,0.000206685669900635
1014,0.00080108642578125,0.000237321235674329
1015,0.000619888305664063,0.0002351846716583
1016,0.000198841094970703,0.000209396130748572
1017,0.000598430633544922,0.000299836175737436
1018,0.000936031341552734,0.000248863318333436
1019,0.000664710998535156,0.000216439952640265
1020,0.000441074371337891,0.00021436681016841
1021,0.0013580322265625,0.000215534615264364
1022,0.000574588775634766,0.000275200731841388
1023,0.000856399536132813,0.000334156375857271
1024,0.000743389129638672,0.000272584077223966
1025,0.000735759735107422,0.000186496370970591
1026,0.00112199783325195,0.000262979043124758
1027,0.000797748565673828,0.000240462128327759
1028,0.00111103057861328,0.000295706710453544
1029,0.000986099243164063,0.000224504737996444
1030,0.0007476806640625,0.000255257126119943
1031,0.00101613998413086,0.000319297225308862
1032,0.000905036926269531,0.000270036381269906
1033,0.000807285308837891,0.000295626732354779
1034,0.001068115234375,0.00036536556261835
1035,0.00108051300048828,0.0003422667900442
1036,0.000939846038818359,0.000391262249907168
1037,0.000247955322265625,0.000332945719646449
1038,0.00144481658935547,0.00040252739050933
1039,0.0000362396240234375,0.000252642708524161
1040,0.000500679016113281,0.000326836307213005
1041,0.000781059265136719,0.000530366402936999
1042,0.000842571258544922,0.000417609180998649
1043,0.000164508819580078,0.000383524131089991
1044,0.000397682189941406,0.00042918311122488
1045,-0.000295162200927734,0.000471936795056042
1046,0.000890254974365234,0.000541901881624749
1047,-0.000384807586669922,0.000436220264870557
1048,0.0000500679016113281,0.000425060677404301
1049,-0.000376701354980469,0.000448474409892998
1050,-0.0000996589660644531,0.000663373551191968
1051,0.000194549560546875,0.000593427627033388
1052,0.000919342041015625,0.000690281038590547
1053,-0.0003509521484375,0.000593562481625978
1054,-0.0000247955322265625,0.000491829733587897
1055,-0.000485897064208984,0.00071535491255792
1056,0.000941753387451172,0.000841743875813292
1057,0.0000886917114257813,0.000660537716025454
1058,0.000344276428222656,0.000714540760000771
1059,0.000554084777832031,0.00081432842082091
1060,0.000170230865478516,0.000716472861730205
1061,0.000348091125488281,0.000848184876698471
1062,-0.000102043151855469,0.000909067250438027
1063,-0.000860691070556641,0.000434607707782779
1064,0.000733375549316406,0.000592065102785267
1065,0.0000567436218261719,0.000907913977217043
1066,-0.000837326049804688,0.000953643798339828
1067,-0.000483512878417969,0.00108715525793143
1068,0.000744342803955078,0.000775763498873426
1069,-0.0000743865966796875,0.000607735271653027
1070,-0.000877857208251953,0.000639391512631923
1071,-0.000109672546386719,0.000796970511303747
1072,0.000301361083984375,0.00119878644482351
1073,-0.00106906890869141,0.0011111447680818
1074,0.000118255615234375,0.000828167174273037
1075,-0.000353336334228516,0.00120706087680987
1076,0.000646114349365234,0.00119284796643567
1077,0.000811100006103516,0.00163432957018993
1078,-0.000776290893554688,0.00149777276367446
1079,0.000814437866210938,0.00105055959306469
1080,0.000777721405029297,0.00133880114375078
1081,0.00116777420043945,0.00110082936577722
1082,0.000416755676269531,0.00104909029761591
1083,-0.000825405120849609,0.00129169051727712
1084,0.00159406661987305,0.00130243842925536
1085,-0.001800537109375,0.001490370537973
1086,-0.00250720977783203,0.00150567990531113
1087,0.000500202178955078,0.00197481980980603
1088,-0.00125551223754883,0.00169578633081203
1089,-0.00160884857177734,0.00145683483354389
1090,-0.000611305236816406,0.00112452720435972
1091,-0.000646591186523438,0.00146547939496374
1092,-0.00259971618652344,0.0014548357179199
1093,-0.000743389129638672,0.00152831836249376
1094,0.00154399871826172,0.00156210805030074
1095,0.000821590423583984,0.00162686887662631
1096,-0.00147533416748047,0.00163671407721679
1097,-0.00184488296508789,0.00188657510696364
1098,-0.000338554382324219,0.0018833017841284
1099,-0.00173282623291016,0.00170690546292485
1100,0.0000872611999511719,0.00212157535881161
