Wavelength (nm),Absorbance (AU),Std.Dev.
190,0.540028095245361,0.0000825603297137143
191,0.545934677124023,0.0000625438782961639
192,0.550366878509522,0.0000876343155491649
193,0.554811000823975,0.0000728765690122897
194,0.558291912078857,0.0000851658396696651
195,0.561214447021484,0.0000846678052117463
196,0.563523769378662,0.0000786087423733564
197,0.56502628326416,0.0000518602884679624
198,0.565214157104492,0.0000558235605169288
199,0.56440544128418,0.0000815391540527344
200,0.562472343444824,0.00010465679477918
201,0.559374332427979,0.0000695267167348143
202,0.555221557617188,0.00010223682242776
203,0.549794673919678,0.00013509563346192
204,0.542949199676514,0.000104450197199992
205,0.53477954864502,0.0000732267259132739
206,0.524882793426514,0.0000522468626860381
207,0.512983322143555,0.0000741477947899825
208,0.499520778656006,0.0000856822107132576
209,0.485005855560303,0.0000887096550950925
210,0.468970775604248,0.0000884992295125645
211,0.451338768005371,0.0000578399738384622
212,0.432965755462647,0.0000627362600249835
213,0.413285732269287,0.0000797359562101293
214,0.393344879150391,0.0000673303523010771
215,0.372591972351074,0.0000630038857999088
216,0.352157592773437,0.0000560309023993227
217,0.331292152404785,0.000048140483867065
218,0.31105375289917,0.0000499940509191817
219,0.291120052337646,0.0000392211244256356
220,0.272250652313232,0.0000455498055804796
221,0.253932476043701,0.0000386458793036058
222,0.236879825592041,0.0000467057067412792
223,0.220812320709229,0.0000360485422531471
224,0.206162929534912,0.0000280777737041338
225,0.192403793334961,0.0000332480671105274
226,0.179941654205322,0.0000453534558208876
227,0.168806076049805,0.0000324319383108748
228,0.158492565155029,0.000033166758083876
229,0.1495680809021,0.0000389586463702531
230,0.141410827636719,0.0000348140112160341
231,0.134299278259277,0.0000533226763339727
232,0.127917289733887,0.0000563435112194688
233,0.122201442718506,0.0000389834426807549
234,0.117286682128906,0.0000332010177336296
235,0.112929821014404,0.0000349386951679059
236,0.109013080596924,0.0000450365059900449
237,0.105666160583496,0.0000347060808167751
238,0.102643966674805,0.0000321095925121658
239,0.0999364852905273,0.0000407402870303675
240,0.0976405143737793,0.0000434262278367137
241,0.0955677032470703,0.0000387890249146163
242,0.0936269760131836,0.0000327979398517945
243,0.0918960571289063,0.000037300889579955
244,0.0903429985046387,0.0000296224890404958
245,0.0889139175415039,0.000039419179316407
246,0.0875406265258789,0.0000296320821263525
247,0.0863747596740723,0.0000397651886185638
248,0.085258960723877,0.0000469484867673783
249,0.0842471122741699,0.0000383794673352838
250,0.0833201408386231,0.0000268816287130825
251,0.0824046134948731,0.0000250140747002631
252,0.0815787315368652,0.0000317177367887209
253,0.0808558464050293,0.0000336254731499846
254,0.0800919532775879,0.0000346191658371671
255,0.0793190002441406,0.000028064611376881
256,0.0786242485046387,0.0000358722917607862
257,0.0779824256896973,0.0000357460936687088
258,0.0773344039916992,0.0000377658340651512
259,0.0766229629516602,0.0000437795202937255
260,0.075960636138916,0.0000339074474102475
261,0.0752496719360352,0.0000407918790975904
262,0.0745425224304199,0.0000354498844028404
263,0.0739059448242188,0.0000313137186445324
264,0.0731883049011231,0.0000399434735668439
265,0.0724811553955078,0.0000461954070322197
266,0.0716872215270996,0.0000448480493775463
267,0.0709586143493652,0.0000482890332115695
268,0.070216178894043,0.000044945538371182
269,0.0694308280944824,0.000044106792754544
270,0.0686297416687012,0.0000448531189586824
271,0.0677814483642578,0.0000451172121191629
272,0.067018985748291,0.0000445236722356975
273,0.0662531852722168,0.0000535874596711796
274,0.0654029846191406,0.0000448252291671983
275,0.0645709037780762,0.0000424485516180323
276,0.0637955665588379,0.0000422754530715244
277,0.0630102157592773,0.0000543855721400748
278,0.0622167587280273,0.0000495658406885642
279,0.0612764358520508,0.0000539184552284018
280,0.0604305267333984,0.0000347944124091425
281,0.0596952438354492,0.000034878446167227
282,0.0588717460632324,0.0000358691224104456
283,0.058018684387207,0.0000400138548386978
284,0.0572209358215332,0.0000407465652305379
285,0.0563864707946777,0.0000420043197542898
286,0.0555667877197266,0.0000445415424640854
287,0.0548152923583984,0.0000312446615522639
288,0.0539417266845703,0.0000354194050522878
289,0.0531344413757324,0.000039082470600114
290,0.052299976348877,0.0000336854319743632
291,0.0515365600585938,0.0000216993654315859
292,0.0507974624633789,0.0000396907862142895
293,0.0499677658081055,0.000042941165149839
294,0.0492587089538574,0.0000465093481069042
295,0.0485053062438965,0.000047552404800209
296,0.0478544235229492,0.0000446600703200077
297,0.0470871925354004,0.0000339484950683073
298,0.0463776588439941,0.0000344702478152895
299,0.0457887649536133,0.0000388051415284324
300,0.0450515747070313,0.0000362270735039188
301,0.044464111328125,0.0000351252958190225
302,0.0437664985656738,0.0000331436128007361
303,0.0430550575256348,0.0000358794217754512
304,0.0424623489379883,0.000031421542645029
305,0.0418491363525391,0.0000361925371344489
306,0.0412178039550781,0.0000429318978914478
307,0.0406184196472168,0.0000366707616499867
308,0.0400137901306152,0.0000465691970767969
309,0.0394997596740723,0.0000579411107756774
310,0.0388474464416504,0.0000533002850632664
311,0.0382599830627441,0.0000389279938271969
312,0.0377216339111328,0.0000442239151288639
313,0.0371088981628418,0.000058502497806583
314,0.0364832878112793,0.0000463832913563048
315,0.0359921455383301,0.0000544012477758471
316,0.0354790687561035,0.0000612285649081212
317,0.0349397659301758,0.0000535757900435949
318,0.0343999862670898,0.0000463685828443269
319,0.0338692665100098,0.0000492667634958549
320,0.0333456993103027,0.000046109191624143
321,0.0328564643859863,0.0000383045993013264
322,0.0323014259338379,0.0000450491258535453
323,0.0317859649658203,0.0000509379494809169
324,0.0312352180480957,0.0000472465983819357
325,0.0306882858276367,0.000042358065028074
326,0.0301609039306641,0.0000438664269718434
327,0.0296673774719238,0.0000349972162634949
328,0.02923583984375,0.0000422276929237621
329,0.0287637710571289,0.0000447579687596812
330,0.0282759666442871,0.0000539405898911879
331,0.0277976989746094,0.0000504411679901424
332,0.0272989273071289,0.0000579499395984052
333,0.0269317626953125,0.0000373054610475352
334,0.0263943672180176,0.0000366273330797361
335,0.0258612632751465,0.0000466435956319682
336,0.0254616737365723,0.0000353913087437849
337,0.0250148773193359,0.0000410952305548297
338,0.0246615409851074,0.0000485227205463035
339,0.0241966247558594,0.0000465117924294972
340,0.0237574577331543,0.0000462937423189159
341,0.0233321189880371,0.0000473031113145515
342,0.022913932800293,0.0000565459309846469
343,0.0225439071655273,0.0000374855880871459
344,0.0220866203308105,0.0000425849221194117
345,0.0216970443725586,0.000039480417786318
346,0.0213899612426758,0.0000416530290671589
347,0.0210223197937012,0.0000423352453244489
348,0.0205411911010742,0.0000328273900083939
349,0.0202913284301758,0.0000413606418061424
350,0.019899845123291,0.0000443471375146834
351,0.0196337699890137,0.0000509401813011682
352,0.0191774368286133,0.0000544440714854767
353,0.0188584327697754,0.0000575236394773954
354,0.0185790061950684,0.0000501291717565591
355,0.0182342529296875,0.0000651279964024189
356,0.017937183380127,0.0000533653003826127
357,0.0176916122436523,0.0000428145602736188
358,0.0172891616821289,0.0000467653044173854
359,0.0170350074768066,0.0000537061333539766
360,0.0166597366333008,0.0000514542425545357
361,0.0163040161132812,0.0000551649279174025
362,0.0159697532653809,0.0000534270448510334
363,0.0156130790710449,0.0000557012341717903
364,0.0154533386230469,0.0000633709227933314
365,0.0151858329772949,0.0000537431651389772
366,0.0148210525512695,0.0000422344229728803
367,0.0145840644836426,0.0000627416962071371
368,0.0142807960510254,0.0000622267924032586
369,0.0140929222106934,0.0000736323657839667
370,0.013850212097168,0.0000719597671240268
371,0.0136528015136719,0.00008124443241304
372,0.0134453773498535,0.0000738651387051822
373,0.0132546424865723,0.0000653023221864109
374,0.0130434036254883,0.0000851645047714343
375,0.0128302574157715,0.0000551742009790057
376,0.0126657485961914,0.0000458681656367052
377,0.0124144554138184,0.0000565660326315615
378,0.0121912956237793,0.0000396986622937839
379,0.0118770599365234,0.0000491408396351227
380,0.0115609169006348,0.0000617223292824514
381,0.0114636421203613,0.0000630273391764932
382,0.011476993560791,0.0000854563497224503
383,0.0109591484069824,0.0000744370142931332
384,0.0108165740966797,0.0000801682250650368
385,0.0106325149536133,0.0000725889630365489
386,0.0105037689208984,0.0000793041982669253
387,0.0103521347045898,0.0000436586019157808
388,0.0102324485778809,0.0000399142894263679
389,0.00976371765136719,0.0000598387887651481
390,0.00987720489501953,0.000065762050659406
391,0.00950479507446289,0.0000510249181347969
392,0.00945949554443359,0.0000501439107957186
393,0.00914669036865234,0.0000642280358843906
394,0.00908041000366211,0.0000631444753923296
395,0.00890111923217773,0.0000602977508467356
396,0.00868320465087891,0.0000578881095621748
397,0.0085601806640625,0.0000485426316288676
398,0.00838756561279297,0.0000594996481220782
399,0.00798225402832031,0.0000666037567100945
400,0.00804233551025391,0.0000646901267314626
401,0.00783109664916992,0.0000752813978378627
402,0.00762033462524414,0.000071277187122554
403,0.00757837295532227,0.0000508754187639574
404,0.0074920654296875,0.0000670867686785057
405,0.0073246955871582,0.0000695724859613017
406,0.00700950622558594,0.000066974830116575
407,0.00705480575561523,0.0000738897604187677
408,0.00696325302124023,0.0000675326675175825
409,0.00662755966186523,0.0000622414064927986
410,0.00654745101928711,0.0000650039412992553
411,0.00642204284667969,0.0000763490597017288
412,0.00623798370361328,0.00007322827842885
413,0.00614356994628906,0.0000567716641416104
414,0.00599479675292969,0.0000527061465080467
415,0.00583124160766602,0.0000624656677246094
416,0.00563478469848633,0.0000649164362905487
417,0.00562572479248047,0.0000745606220775218
418,0.00559186935424805,0.000068897606796088
419,0.00560474395751953,0.0000463832913563048
420,0.00543403625488281,0.0000516042681063411
421,0.00542163848876953,0.000044945538371182
422,0.00497770309448242,0.0000482690175191789
423,0.00509262084960938,0.0000432767485449855
424,0.00486946105957031,0.0000444891879531795
425,0.00481081008911133,0.000068920704100325
426,0.00485610961914063,0.0000720024108886719
427,0.00480365753173828,0.0000549967118797442
428,0.00443887710571289,0.0000533812756263121
429,0.00470066070556641,0.0000478431895956678
430,0.00419902801513672,0.000065370183235785
431,0.00405168533325195,0.0000826704175414197
432,0.00413608551025391,0.0000777537050973142
433,0.00422763824462891,0.0000720671179836845
434,0.00393772125244141,0.0000751150967257835
435,0.00388240814208984,0.0000702246939949777
436,0.00399160385131836,0.00006687120512554
437,0.00393772125244141,0.0000785494242934189
438,0.00385904312133789,0.0000672424933346772
439,0.00363683700561523,0.0000716065901640368
440,0.00369024276733398,0.000052171738218416
441,0.00374841690063477,0.000063598351491683
442,0.00323677062988281,0.0000559527312754066
443,0.00355100631713867,0.0000619979998336062
444,0.00328731536865234,0.0000542736212663857
445,0.00321722030639648,0.0000443381641239484
446,0.00327920913696289,0.0000504580690353445
447,0.00303459167480469,0.0000415621781883613
448,0.0030970573425293,0.0000441312725514346
449,0.00317478179931641,0.0000616117157002202
450,0.00296974182128906,0.0000744736602100821
451,0.00291061401367187,0.0000628412762051986
452,0.00294733047485352,0.0000666532388146691
453,0.0028834342956543,0.0000621792728908655
454,0.0028691291809082,0.0000676571270009535
455,0.00267362594604492,0.0000787676677439384
456,0.00277996063232422,0.0000592871794629912
457,0.00275325775146484,0.0000669102956911508
458,0.00259685516357422,0.0000602930371020269
459,0.00251293182373047,0.0000711670472936597
460,0.00239896774291992,0.0000613584005494687
461,0.00245571136474609,0.0000703977033003257
462,0.00242042541503906,0.0000660432374738513
463,0.00260829925537109,0.0000437171525712516
464,0.00236892700195312,0.0000299003894931619
465,0.00225687026977539,0.0000239542457967356
466,0.00216293334960937,0.0000344883826768146
467,0.00212240219116211,0.0000488275196365739
468,0.00211000442504883,0.0000596770800095593
469,0.00200128555297852,0.0000701825899431386
470,0.00208711624145508,0.0000756640058018682
471,0.00215864181518555,0.0000505638536260976
472,0.00189781188964844,0.0000461695593143394
473,0.00201845169067383,0.0000601561778333428
474,0.00201511383056641,0.0000622925288065447
475,0.00196981430053711,0.0000765795131678952
476,0.00179338455200195,0.0000581936725258984
477,0.00186443328857422,0.000042737486295236
478,0.00193595886230469,0.000057073244821017
479,0.001861572265625,0.0000683841676328736
480,0.00171995162963867,0.000051653812971441
481,0.00168991088867187,0.0000561737649423748
482,0.00155401229858398,0.0000669680399477415
483,0.0017247200012207,0.0000715414665367377
484,0.00141096115112305,0.0000446638885622512
485,0.00410890579223633,0.0000391108220515031
486,0.0000362396240234375,0.0000530501429573814
487,0.00144386291503906,0.0000538256014596926
488,0.00131416320800781,0.0000409975981283688
489,0.00151252746582031,0.0000425154545589581
490,0.0013575553894043,0.0000518537115253474
491,0.00125837326049805,0.0000718965446841949
492,0.00130605697631836,0.0000820603361675223
493,0.00133466720581055,0.0000637822059906233
494,0.00127267837524414,0.0000435504019925158
495,0.00139665603637695,0.0000434589396450167
496,0.00116539001464844,0.0000603524033801708
497,0.00115489959716797,0.0000757826120844693
498,0.00115299224853516,0.0000508530677309993
499,0.00103425979614258,0.0000616799508553319
500,0.00105762481689453,0.0000679338169873538
501,0.00111865997314453,0.0000431544214272164
502,0.00116300582885742,0.00004522920470186
503,0.00101041793823242,0.0000502865422498098
504,0.000963211059570313,0.0000614546723131129
505,0.00102090835571289,0.0000433830104820004
506,0.000884056091308594,0.00004635509594183
507,0.000839710235595703,0.0000518964467533673
508,0.000954151153564453,0.0000619686534028354
509,0.000895977020263672,0.0000512028530913873
510,0.000799179077148438,0.0000542034034654626
511,0.000853061676025391,0.0000475284910924859
512,0.00087738037109375,0.0000586170393013875
513,0.000838756561279297,0.0000508798877923185
514,0.000767230987548828,0.000053888928202006
515,0.000766277313232422,0.0000749469097304859
516,0.000701904296875,0.0000636948074095023
517,0.000668525695800781,0.0000641518785813985
518,0.00074005126953125,0.0000810468883417466
519,0.000693321228027344,0.0000571329719572073
520,0.000584125518798828,0.0000521314094930804
521,0.00058746337890625,0.0000572949163470169
522,0.000559329986572266,0.0000385921548708028
523,0.000473499298095703,0.0000458706441261911
524,0.000530719757080078,0.0000462581199314915
525,0.000522136688232422,0.0000481168624309681
526,0.000581741333007813,0.0000521314094930804
527,0.000376224517822266,0.0000566293061802045
528,0.000536918640136719,0.0000435321248962375
529,0.000438690185546875,0.0000697829635868791
530,0.000543594360351563,0.0000561666810479053
531,0.000510215759277344,0.0000485414606148003
532,0.000501632690429688,0.0000599337077499147
533,0.000378131866455078,0.0000484969411281247
534,0.000420093536376953,0.0000475045653466493
535,0.000292778015136719,0.0000322597165595681
536,0.000360488891601562,0.0000321882741938108
537,0.000419139862060547,0.0000441390001929737
538,0.000281810760498047,0.000045147439722656
539,0.000323295593261719,0.0000622633211956053
540,0.000313282012939453,0.0000559120797651903
541,0.000241756439208984,0.0000539437512444443
542,0.000272274017333984,0.0000433135105490436
543,0.000247478485107422,0.0000405002925254556
544,0.000176906585693359,0.0000446320598959779
545,0.000138759613037109,0.0000718031899756222
546,0.000226020812988281,0.0000656322655503528
547,0.00025177001953125,0.0000501609119978376
548,0.000107765197753906,0.000044747807463504
549,0.000152111053466797,0.0000322914179865589
550,0.000121593475341797,0.000049322114244699
551,0.000161170959472656,0.0000411629521463532
552,0.000135898590087891,0.0000405276521400272
553,0.0000982284545898438,0.0000391456879572918
554,0.0000233650207519531,0.0000550968777776254
555,0.000182628631591797,0.0000623472561976667
556,0.000112056732177734,0.0000550979094674227
557,0.0000553131103515625,0.0000465288990922065
558,0.00000524520874023438,0.0000416598519519476
559,0.0000233650207519531,0.0000462790053462423
560,0.0000901222229003906,0.0000494245797364466
561,-0.0000538825988769531,0.0000434510910569905
562,0.0000400543212890625,0.0000380260816937695
563,0.0000166893005371094,0.0000280402954635413
564,-0.0000805854797363281,0.0000386458793036058
565,-0.0000605583190917969,0.0000458879898043025
566,0.0000548362731933594,0.0000332360972245852
567,0.000000476837158203125,0.0000376150174646294
568,0.0000095367431640625,0.0000470814821548352
569,0.000049591064453125,0.0000288077332266592
570,0.0000209808349609375,0.0000277565717899376
571,0.0000367164611816406,0.0000302072670273747
572,-0.000284194946289062,0.0000298951610304921
573,0.0000729560852050781,0.0000258944968841275
574,-0.0000123977661132812,0.0000309182110572751
575,-0.000229358673095703,0.0000289091744226816
576,0.000146865844726562,0.0000317759287704472
577,-0.00000715255737304688,0.0000399477426283179
578,-0.000215530395507812,0.0000330121496785564
579,-0.0000553131103515625,0.000041123576626163
580,0.000127315521240234,0.0000284538365573869
581,0.000145435333251953,0.0000203990746792727
582,-0.000402927398681641,0.0000285659885083
583,-0.000281810760498047,0.0000298094740869674
584,0.000174999237060547,0.0000234166615904314
585,-0.0000820159912109375,0.0000284653212550181
586,-0.000339508056640625,0.0000259876251220703
587,0.000147342681884766,0.0000428835433119147
588,-0.000317096710205078,0.0000438845648378126
589,-0.000288963317871094,0.0000332352420677693
590,-0.0001220703125,0.000024744471832294
591,-0.000262260437011719,0.0000196644747617464
592,0.000184059143066406,0.0000236190878888235
593,-0.000224113464355469,0.000034246071569396
594,-0.0000982284545898438,0.0000379085540771484
595,-0.000244617462158203,0.0000399804569554416
596,-0.000318527221679687,0.0000315443187778472
597,-0.000108242034912109,0.0000435020815675988
598,-0.000233173370361328,0.0000358691224104456
599,-0.00014495849609375,0.0000328732449868099
600,-0.000191211700439453,0.0000310987769614464
601,-0.000315189361572266,0.000030080451150645
602,-0.000226020812988281,0.0000319800999395508
603,-0.000283241271972656,0.0000288742519285171
604,-0.00045013427734375,0.0000366475027447207
605,-0.000144481658935547,0.0000423687994593229
606,-0.000449657440185547,0.000027886821501109
607,-0.000310897827148437,0.0000321670756134792
608,-0.000402450561523438,0.0000373534276788275
609,-0.000387191772460937,0.0000333291777783058
610,-0.000319480895996094,0.0000277473545903067
611,-0.000508308410644531,0.0000308933812114014
612,-0.000434398651123047,0.0000297206713818434
613,-0.000433921813964844,0.000036783745039675
614,-0.000515937805175781,0.0000461412332953152
615,-0.000496864318847656,0.0000435504019925158
616,-0.000691890716552734,0.0000359940995536148
617,-0.000438213348388672,0.0000298280604801815
618,-0.000413417816162109,0.0000391892267183382
619,-0.000447273254394531,0.0000334967497661115
620,-0.00029754638671875,0.0000285868748073728
621,-0.000599384307861328,0.0000332865125904603
622,-0.000494956970214844,0.0000394480092619828
623,-0.000582218170166016,0.0000468308956404604
624,-0.000557899475097656,0.0000377748639132276
625,-0.000616550445556641,0.0000380006606882034
626,-0.000620365142822266,0.0000330173149561344
