Wavelength (nm),Absorbance (AU),Std.Dev.
190,0.2052001953125,0.0000633691287773702
191,0.185562133789062,0.0000592555312441979
192,0.169319629669189,0.0000439272887468483
193,0.155261993408203,0.0000501246357956615
194,0.14406156539917,0.000047737329859658
195,0.134832859039307,0.0000333998816636131
196,0.127466201782227,0.0000432806888246833
197,0.121341228485107,0.000037623328088725
198,0.116269111633301,0.0000365115304954978
199,0.111929416656494,0.0000254187080804941
200,0.108242511749268,0.0000322526675664632
201,0.10500431060791,0.0000319471999656591
202,0.102215766906738,0.0000352133829534975
203,0.0996603965759277,0.0000478895038328668
204,0.0973415374755859,0.0000386818990572212
205,0.0951309204101563,0.0000325762150458341
206,0.092860221862793,0.0000358191681520844
207,0.0905766487121582,0.0000416359669636489
208,0.0881938934326172,0.00004669231721587
209,0.0859079360961914,0.000050191499649575
210,0.0834951400756836,0.0000454436068904434
211,0.0810151100158691,0.0000377590602619661
212,0.0783762931823731,0.0000270234602170929
213,0.075737476348877,0.00004121953165369
214,0.0732026100158691,0.0000405893189009473
215,0.0705418586730957,0.0000252808025972574
216,0.0679931640625,0.0000237827761073948
217,0.0654425621032715,0.000029702974668181
218,0.063011646270752,0.0000275345074235227
219,0.0605745315551758,0.0000206593516480159
220,0.0582523345947266,0.0000328048716789567
221,0.0560412406921387,0.0000244521471713101
222,0.0539813041687012,0.0000224303611281007
223,0.0520386695861816,0.0000285958214084183
224,0.0501823425292969,0.0000227386837340667
225,0.048457145690918,0.0000243974560272368
226,0.046849250793457,0.0000223160299479889
227,0.0453433990478516,0.0000243420582162861
228,0.0439386367797852,0.0000272236018026127
229,0.0426959991455078,0.0000298027992210389
230,0.0414633750915527,0.0000246662427981373
231,0.0404162406921387,0.0000289543634547304
232,0.0394229888916016,0.0000327233299726648
233,0.0384020805358887,0.0000366746367001016
234,0.0375094413757324,0.0000371083794028124
235,0.0366711616516113,0.000035590711511492
236,0.035916805267334,0.0000258977894643283
237,0.0352764129638672,0.0000248887757239213
238,0.0345439910888672,0.0000324231736326317
239,0.0339055061340332,0.0000360043631678263
240,0.0333194732666016,0.0000350588825553133
241,0.0327739715576172,0.0000303803652388009
242,0.032315731048584,0.0000287929304235511
243,0.0318102836608887,0.0000249725679160539
244,0.0313138961791992,0.0000245432212569577
245,0.0308756828308105,0.000028701477769112
246,0.0304551124572754,0.0000285719575802831
247,0.030029296875,0.0000309623038401138
248,0.0296287536621094,0.0000280499230330829
249,0.0292706489562988,0.0000310923788823847
250,0.0289473533630371,0.0000277622030165781
251,0.0286159515380859,0.0000256186282647391
252,0.0282840728759766,0.0000300331711692805
253,0.0280065536499023,0.0000312873858959481
254,0.027806282043457,0.0000303738158305952
255,0.0274763107299805,0.000026310438135594
256,0.0272002220153809,0.0000284018477753425
257,0.0269861221313477,0.0000342958309866934
258,0.0268220901489258,0.0000475858638015446
259,0.026616096496582,0.0000413145758970408
260,0.0263237953186035,0.0000387178853012045
261,0.0261774063110352,0.0000282432947241238
262,0.0259552001953125,0.0000401436286937779
263,0.0257911682128906,0.0000414162650119943
264,0.0255112648010254,0.0000341121917721451
265,0.0253086090087891,0.0000484042564099975
266,0.0250215530395508,0.0000466192157454856
267,0.0247702598571777,0.0000348939254312052
268,0.0246419906616211,0.0000325220770361159
269,0.0243330001831055,0.0000486560860398258
270,0.0240612030029297,0.000048578919063986
271,0.0238475799560547,0.0000394444066711514
272,0.0235738754272461,0.0000417355110685342
273,0.0234150886535645,0.0000486467389864229
274,0.0231485366821289,0.0000384948189537554
275,0.0229582786560059,0.0000424123801483749
276,0.0226039886474609,0.0000461769458529538
277,0.0223884582519531,0.000039499130591351
278,0.0222115516662598,0.0000378019405155589
279,0.0219569206237793,0.0000390220643283172
280,0.0216922760009766,0.0000409032070543394
281,0.0214018821716309,0.0000537865128029506
282,0.0210976600646973,0.000040671162865715
283,0.020878791809082,0.0000384312705002108
284,0.0206494331359863,0.0000380858288933049
285,0.0203151702880859,0.0000260956731653445
286,0.0200400352478027,0.0000337570735980271
287,0.0197944641113281,0.0000441982005580604
288,0.019507884979248,0.0000349004409621052
289,0.019218921661377,0.0000304714427847102
290,0.0189309120178223,0.0000251178244666235
291,0.0186614990234375,0.0000301380322844218
292,0.0183920860290527,0.0000387963514781395
293,0.0181055068969727,0.0000357468887595965
294,0.0178608894348145,0.0000240318358771403
295,0.0175266265869141,0.00002779698891202
296,0.01739501953125,0.0000271472821020885
297,0.0171232223510742,0.0000318420486498629
298,0.0169029235839844,0.0000354121824163421
299,0.0166044235229492,0.0000378132167108905
300,0.0163683891296387,0.000028707913688623
301,0.0161786079406738,0.0000347224554724711
302,0.015932559967041,0.0000363508200022825
303,0.0157251358032227,0.0000420989424648783
304,0.0154905319213867,0.0000414450772847138
305,0.0152363777160645,0.0000395286212464575
306,0.0150613784790039,0.0000425655627564043
307,0.014899730682373,0.0000486642632388387
308,0.0146846771240234,0.000052823571869378
309,0.0144858360290527,0.0000659571113092088
310,0.014225959777832,0.0000513823844562423
311,0.0140337944030762,0.0000457527675990001
312,0.0138330459594727,0.0000378470251390185
313,0.0135273933410645,0.000045739099113922
314,0.0134067535400391,0.0000385206516811766
315,0.0132761001586914,0.0000486034854821901
316,0.0130462646484375,0.0000590287039441814
317,0.0127625465393066,0.000042524144210084
318,0.0126194953918457,0.0000393650662588606
319,0.0124096870422363,0.0000547345918742437
320,0.0122990608215332,0.0000492101953898594
321,0.0119824409484863,0.0000451247709183311
322,0.0117988586425781,0.0000521891680153504
323,0.0117125511169434,0.000049859703974839
324,0.0114665031433105,0.0000346987097006614
325,0.0113029479980469,0.0000355299682811683
326,0.011073112487793,0.0000483196294096802
327,0.010918140411377,0.0000619337864555957
328,0.0108132362365723,0.000053763257426165
329,0.0105128288269043,0.0000547013488758087
330,0.0103640556335449,0.0000324485846772821
331,0.0101809501647949,0.0000374081713735832
332,0.00997447967529297,0.0000382310715147765
333,0.0098271369934082,0.0000520943231384447
334,0.00973796844482422,0.0000501019498312519
335,0.00955581665039063,0.0000533578436320512
336,0.00936603546142578,0.0000453697463491651
337,0.00925588607788086,0.0000491986428870851
338,0.00908041000366211,0.0000561727530121451
339,0.00897026062011719,0.0000436260398190986
340,0.00880718231201172,0.0000470271204115093
341,0.00868082046508789,0.0000379542609040223
342,0.0085453987121582,0.000038808071102763
343,0.00834846496582031,0.0000459226615053611
344,0.00828218460083008,0.0000474123385024354
345,0.00816726684570313,0.0000482619511752319
346,0.00799465179443359,0.0000562566812787099
347,0.00789594650268555,0.0000414539913106216
348,0.00777292251586914,0.0000360824287650921
349,0.00766372680664063,0.0000369940826686217
350,0.00754833221435547,0.0000381812299448863
351,0.00736474990844727,0.0000522718801823822
352,0.00717782974243164,0.0000536839020213971
353,0.00713777542114258,0.0000526316776088783
354,0.00704145431518555,0.0000410350167163816
355,0.00683975219726563,0.0000570074726953416
356,0.00682783126831055,0.0000662735036687884
357,0.00679636001586914,0.0000582161345274581
358,0.00659990310668945,0.0000476276544988246
359,0.00660085678100586,0.0000541383446671671
360,0.00650119781494141,0.0000402369762282597
361,0.00629663467407227,0.0000505908270107017
362,0.00616264343261719,0.0000373846109987878
363,0.00603199005126953,0.0000616209410825733
364,0.00602293014526367,0.0000647463393107817
365,0.00595712661743164,0.0000543196850711307
366,0.00595808029174805,0.0000573395443556115
367,0.00565862655639648,0.0000588927673421029
368,0.00558757781982422,0.0000680942828974198
369,0.00558328628540039,0.0000615692611372718
370,0.00549173355102539,0.0000726531477323222
371,0.00539541244506836,0.0000860793432557663
372,0.00520420074462891,0.0000625584183122376
373,0.00516653060913086,0.0000759728948449804
374,0.00514745712280273,0.0000588667011186509
375,0.0050816535949707,0.0000614898109360039
376,0.00508785247802734,0.0000841816805637617
377,0.00506448745727539,0.0000783044437160346
378,0.00490856170654297,0.0000807489621647583
379,0.00475502014160156,0.0000908221459652301
380,0.00464057922363281,0.0000822747937804797
381,0.00465583801269531,0.0000505953211767415
382,0.00470399856567383,0.0000618345835779088
383,0.00465726852416992,0.0000494510250590618
384,0.00445032119750977,0.0000546639263378963
385,0.00442647933959961,0.0000640188292603376
386,0.00429153442382813,0.000070274862010729
387,0.00414752960205078,0.0000636215857256043
388,0.00413799285888672,0.0000789637150954776
389,0.00400447845458984,0.0000670528676360264
390,0.00396203994750977,0.0000523294836607487
391,0.00405120849609375,0.0000539258344588307
392,0.00385379791259766,0.0000477873153599792
393,0.00362777709960937,0.0000504805949601431
394,0.00365591049194336,0.0000606717901383189
395,0.00365591049194336,0.000050456942475123
396,0.00358104705810547,0.0000467750274393559
397,0.00350189208984375,0.0000549367316191612
398,0.00335359573364258,0.0000527525014928175
399,0.00318717956542969,0.0000548113890868625
400,0.00335931777954102,0.0000708612746744535
401,0.00319147109985352,0.0000583478023785945
402,0.00320243835449219,0.0000628412762051986
403,0.00312614440917969,0.0000677528385643245
404,0.00302267074584961,0.000079636088273236
405,0.00305700302124023,0.0000665969287069283
406,0.00282382965087891,0.0000748452085433323
407,0.00290489196777344,0.0000883243500086884
408,0.0029454231262207,0.0000800873523758785
409,0.00278663635253906,0.0000552791869614534
410,0.00260639190673828,0.0000531550465891558
411,0.00264644622802734,0.0000708339953412611
412,0.00271749496459961,0.0000652674942787675
413,0.00251150131225586,0.0000466277501557622
414,0.0025181770324707,0.0000511106266559831
415,0.00239038467407227,0.0000461387693413821
416,0.00235700607299805,0.0000531069022839579
417,0.00231027603149414,0.0000768477486481359
418,0.00229215621948242,0.0000755391935284151
419,0.00229310989379883,0.000068182711651212
420,0.00218343734741211,0.0000681977164661055
421,0.00225353240966797,0.0000608887630432711
422,0.0019831657409668,0.0000686777949805787
423,0.00191545486450195,0.0000591604850055987
424,0.00202560424804687,0.00004921366061188
425,0.00193452835083008,0.0000450175695615115
426,0.00185298919677734,0.0000418429700706313
427,0.00195217132568359,0.0000404995907538412
428,0.00179100036621094,0.0000515998618160964
429,0.00205183029174805,0.0000665115195242412
430,0.0017242431640625,0.0000586984411277592
431,0.00165653228759766,0.0000778107076802569
432,0.00171375274658203,0.0000590662481964189
433,0.00179243087768555,0.0000442072023592828
434,0.00169849395751953,0.0000570692607894027
435,0.00150871276855469,0.000051353613063039
436,0.00167751312255859,0.000061081704628702
437,0.0015864372253418,0.0000410917723791552
438,0.00158977508544922,0.0000574831100270225
439,0.00150966644287109,0.0000782942800589515
440,0.00156307220458984,0.0000397401648991273
441,0.00147819519042969,0.0000434981613427609
442,0.00125885009765625,0.0000442187734110081
443,0.00143337249755859,0.0000600114292893058
444,0.0013432502746582,0.0000514928938415899
445,0.00137472152709961,0.0000529085154320111
446,0.00135469436645508,0.0000378492779604854
447,0.00119543075561523,0.0000389528096502877
448,0.00130176544189453,0.0000411519031722859
449,0.00124454498291016,0.0000538572741384979
450,0.00111913681030273,0.0000651960389037231
451,0.001190185546875,0.0000622194840712816
452,0.00116586685180664,0.0000569575947633328
453,0.00111818313598633,0.0000513281480024434
454,0.00126504898071289,0.0000496655143741198
455,0.00111246109008789,0.0000528461651270128
456,0.00113821029663086,0.0000594384738114712
457,0.00118398666381836,0.0000670070740219084
458,0.00108766555786133,0.0000580175826044278
459,0.00101757049560547,0.0000533450582060773
460,0.00102615356445312,0.0000545004221006834
461,0.00105381011962891,0.0000745956832472377
462,0.000967979431152344,0.0000714142250548985
463,0.00108242034912109,0.0000596618377948903
464,0.000944614410400391,0.000043674223098909
465,0.000874519348144531,0.0000564523642995786
466,0.000829696655273438,0.0000706105513016234
467,0.000964164733886719,0.0000678484151106249
468,0.000824928283691406,0.0000712181478143891
469,0.000847339630126953,0.0000837959058966361
470,0.000856399536132813,0.0000584237418842186
471,0.000819683074951172,0.0000519938391944883
472,0.000882625579833984,0.000058726517938006
473,0.000734806060791016,0.0000630002768131781
474,0.00075531005859375,0.000049713561180328
475,0.000956058502197266,0.000049892754972566
476,0.000830173492431641,0.0000527233996355625
477,0.000838279724121094,0.0000638819436684196
478,0.000782012939453125,0.0000445236722356975
479,0.00090789794921875,0.00004590904360277
480,0.000725746154785156,0.0000605864722223991
481,0.000592231750488281,0.0000588435214487309
482,0.000662803649902344,0.0000605742741389871
483,0.000675201416015625,0.0000713951192735636
484,0.000583648681640625,0.0000556420133682523
485,0.00254726409912109,0.0000614028524272258
486,-0.000521183013916016,0.0000647621403076354
487,0.000719547271728516,0.0000591845009866664
488,0.000463008880615234,0.000056251628903577
489,0.000606060028076172,0.0000565187824205544
490,0.000562667846679688,0.0000549336274105632
491,0.000593662261962891,0.0000606952081265996
492,0.000617027282714844,0.0000556011346841403
493,0.000571250915527344,0.0000759983296106499
494,0.000522613525390625,0.0000719281628504114
495,0.000623226165771484,0.0000522196561611687
496,0.000492572784423828,0.0000489054566688356
497,0.000421047210693359,0.0000670070740219084
498,0.000630855560302734,0.0000646620021165877
499,0.000507831573486328,0.0000778019407704572
500,0.000400543212890625,0.000049972443180147
501,0.000369071960449219,0.0000516097754401213
502,0.000457763671875,0.0000554947091806134
503,0.000396728515625,0.0000757360925213759
504,0.000474452972412109,0.0000671799083348043
505,0.000380039215087891,0.0000511250827486633
506,0.000241756439208984,0.0000456009424109423
507,0.000309944152832031,0.0000491431530705987
508,0.000255584716796875,0.0000585413505406061
509,0.000221729278564453,0.0000646373830400751
510,0.000279903411865234,0.0000759773839517575
511,0.00029754638671875,0.0000745941591912314
512,0.000287055969238281,0.0000775252756395677
513,0.000266551971435547,0.0000803551966909229
514,0.000300884246826172,0.0000646725502804571
515,0.000288009643554687,0.0000682043842131361
516,0.000169277191162109,0.0000611282175614018
517,0.000125408172607422,0.0000599166334299015
518,0.000101566314697266,0.0000550669503654294
519,0.000119209289550781,0.0000577366907232587
520,0.0000677108764648438,0.0000624256151224924
521,0.000237464904785156,0.0000823618008130795
522,0.000180721282958984,0.000061419513587122
523,0.000125408172607422,0.0000652831691365236
524,0.000140190124511719,0.0000620200005439629
525,0.00000715255737304688,0.0000522968857109954
526,0.0000710487365722656,0.0000615378628529382
527,0.000177383422851562,0.0000540122017952832
528,0.0000929832458496094,0.0000552318650471277
529,0.000186443328857422,0.0000537018995239855
530,0.000104904174804687,0.0000570333919812848
531,0.000111579895019531,0.0000637554640473949
532,0.000134944915771484,0.0000945485241752938
533,0.000117301940917969,0.0000861004722063192
534,0.0000734329223632813,0.0000586180090356037
535,0.0000715255737304688,0.0000434877056821705
536,0.0000414848327636719,0.0000485180343981883
537,-0.0000405311584472656,0.0000695152697196451
538,0.000057220458984375,0.0000492840672826658
539,0.0000100135803222656,0.0000465691970767969
540,-0.0000276565551757812,0.0000461042601597841
541,0.0000734329223632813,0.0000538446073026506
542,-0.0000901222229003906,0.000040430758046075
543,0.0000157356262207031,0.0000387846283121749
544,0.0000505447387695313,0.0000513879155696911
545,-0.0000476837158203125,0.0000513967641131178
546,-0.0000844001770019531,0.0000439893585411248
547,-0.00000286102294921875,0.0000297068018779209
548,-0.000149250030517578,0.000027040808392428
549,-0.000111579895019531,0.0000453007848465442
550,-0.000138759613037109,0.0000548103520039208
551,-0.0000643730163574219,0.0000441531640230943
552,-0.000102043151855469,0.000046767735362386
553,-0.000184059143066406,0.0000401719387316363
554,-0.000111103057861328,0.0000428092492818135
555,-0.0000958442687988281,0.0000462888305160035
556,-0.0000777244567871094,0.0000563798189310358
557,-0.000115871429443359,0.0000536531864659411
558,-0.000180244445800781,0.0000437989919942748
559,-0.000172138214111328,0.0000448746582890944
560,-0.000179290771484375,0.0000456109136443007
561,-0.000197887420654297,0.0000419779225865817
562,-0.0000762939453125,0.0000368825142412769
563,-0.000176429748535156,0.0000304858967126475
564,-0.000195980072021484,0.0000427408113157646
565,-0.000196933746337891,0.0000508206412726136
566,-0.000185012817382812,0.0000540774123522301
567,-0.000148773193359375,0.000048324334797695
568,-0.000200748443603516,0.0000533780809600639
569,-0.000123023986816406,0.000038924343107058
570,-0.000164508819580078,0.0000296938830680567
571,-0.000120162963867187,0.0000373800492110099
572,-0.000314712524414062,0.0000432176012398702
573,-0.0000691413879394531,0.0000375401390567104
574,-0.000229835510253906,0.0000525549400384651
575,-0.000336647033691406,0.0000389688585266041
576,-0.0000667572021484375,0.0000208711602357197
577,-0.000216484069824219,0.0000245669493375679
578,-0.0004119873046875,0.0000276076978720636
579,-0.000216960906982422,0.0000312319238544708
580,-0.000110626220703125,0.0000238710463191325
581,-0.000102519989013672,0.0000308224603077153
582,-0.000492095947265625,0.0000381477177070339
583,-0.000378131866455078,0.0000393029249235023
584,-0.0000548362731933594,0.0000318670312070066
585,-0.000235557556152344,0.0000299644826856045
586,-0.000406265258789063,0.0000268218252380852
587,-0.0000486373901367188,0.0000198299914479143
588,-0.000420093536376953,0.0000228720349723416
589,-0.000292778015136719,0.000034001197814064
590,-0.000237941741943359,0.0000240920764980462
591,-0.000320911407470703,0.0000282830163157808
592,0.0000138282775878906,0.0000361595398288793
593,-0.000266551971435547,0.0000452241772795468
594,-0.000221729278564453,0.0000278077228207022
595,-0.000278472900390625,0.0000222835294659214
596,-0.000424385070800781,0.0000287588550610896
597,-0.000284671783447266,0.0000290215254123658
598,-0.000354766845703125,0.0000325814494340812
599,-0.000256061553955078,0.0000309971661447339
600,-0.000331401824951172,0.0000235968156633696
601,-0.000401496887207031,0.0000240690611225267
602,-0.000345230102539062,0.0000270492156238751
603,-0.000383377075195312,0.0000319880975194431
604,-0.000476837158203125,0.0000310896364454327
605,-0.000213623046875,0.0000316324944038058
606,-0.000506401062011719,0.0000296924472977748
607,-0.000417232513427734,0.0000268451273850083
608,-0.000479698181152344,0.0000332395176318419
609,-0.00043487548828125,0.0000245796720352835
610,-0.00034332275390625,0.0000308326018530411
611,-0.000530242919921875,0.0000331898872264369
612,-0.000459671020507813,0.0000316477651711371
613,-0.000523567199707031,0.0000248813519490614
614,-0.000530719757080078,0.0000217758536029443
615,-0.000453948974609375,0.0000323582412287208
616,-0.000654220581054688,0.0000287054385057305
617,-0.000378131866455078,0.0000412202211683588
618,-0.000498771667480469,0.0000370608625093063
619,-0.000491619110107422,0.0000321113627573645
620,-0.000360012054443359,0.0000279473969603062
621,-0.000545978546142578,0.0000364484230412777
622,-0.000475883483886719,0.0000415163359016354
623,-0.000543594360351563,0.000036652155706554
624,-0.000487327575683594,0.0000281409681755861
625,-0.000582695007324219,0.0000304821673228589
626,-0.000547885894775391,0.0000350004645664779
627,-0.000489711761474609,0.0000295316805121542
628,-0.000570297241210938,0.000040275101497228
629,-0.000506877899169922,0.0000375408961509447
630,-0.000636100769042969,0.0000367149129764079
631,-0.000573158264160156,0.0000332506315254721
632,-0.000545501708984375,0.0000354186026099163
633,-0.000547409057617188,0.0000250753559840898
634,-0.000592708587646484,0.0000297622411136657
635,-0.000553607940673828,0.0000431557386167299
636,-0.000559329986572266,0.0000420428704169409
637,-0.000634670257568359,0.0000422196154487131
638,-0.000529766082763672,0.0000469242652898504
639,-0.000621795654296875,0.0000442354818088879
640,-0.000603199005126953,0.0000428384515885241
641,-0.000501632690429688,0.0000394112473841108
642,-0.000542163848876953,0.000031645968992744
643,-0.000539779663085938,0.0000435960612100448
644,-0.00054931640625,0.0000321635411583962
645,-0.000500679016113281,0.0000420496300469373
646,-0.000646114349365234,0.0000420415183605203
647,-0.000575542449951172,0.0000453108221335109
648,-0.0006256103515625,0.0000457887831380355
649,-0.000619888305664063,0.0000476908678413242
650,-0.000623703002929688,0.0000392776066974851
651,-0.000632762908935547,0.0000326529019778055
652,-0.000661373138427734,0.0000448987194302877
653,-0.000583648681640625,0.0000391972035786838
654,-0.000661373138427734,0.0000379969208705872
655,0.000748157501220703,0.000021238331843985
656,0.000204563140869141,0.000032673785358064
657,-0.0030512809753418,0.0000556021570175261
658,-0.00035858154296875,0.0000458520521894696
659,-0.000743865966796875,0.0000506177860216353
660,-0.000638484954833984,0.0000458297319096114
661,-0.000623703002929688,0.0000541614389924313
662,-0.000685214996337891,0.0000448784582742784
663,-0.000683307647705078,0.0000372581955011215
664,-0.000672817230224609,0.0000421562883478171
665,-0.0006866455078125,0.0000379250448573898
666,-0.000720977783203125,0.0000351261049618756
667,-0.000629901885986328,0.0000446587975000482
668,-0.000649452209472656,0.000046405345383079
669,-0.000700473785400391,0.0000448645234217551
670,-0.000677108764648438,0.0000404314610124234
671,-0.000613212585449219,0.0000351762354688797
672,-0.000598907470703125,0.0000461079588075011
673,-0.000713348388671875,0.000044149301610978
674,-0.000651836395263672,0.0000396649990196577
675,-0.000682353973388672,0.0000515557782012005
676,-0.000688552856445313,0.0000490053135897672
677,-0.000625133514404297,0.0000351204405704238
678,-0.000680923461914063,0.0000281475322556337
679,-0.000655174255371094,0.0000318241919589959
680,-0.000708580017089844,0.0000386208662630398
681,-0.000685214996337891,0.0000343082595645823
682,-0.000696182250976563,0.0000376648537035415
683,-0.000641822814941406,0.0000347077186299855
684,-0.000649452209472656,0.0000349630908616741
685,-0.000692844390869141,0.000029866150216655
686,-0.0006561279296875,0.0000316055279918083
687,-0.000698089599609375,0.0000382904988564633
688,-0.000683307647705078,0.0000311188766460604
689,-0.000667095184326172,0.0000368184987878722
690,-0.000691890716552734,0.0000395343729556544
691,-0.000646591186523438,0.0000282256786817191
692,-0.000675201416015625,0.0000307143839172133
693,-0.000653743743896484,0.0000344776677752022
694,-0.000710964202880859,0.0000243589824865191
695,-0.000655174255371094,0.0000290161385862568
696,-0.000649452209472656,0.0000317141522561007
697,-0.000593185424804688,0.000031565935582699
698,-0.000707626342773438,0.0000438327224513298
699,-0.00064849853515625,0.0000336786813867254
700,-0.000767230987548828,0.0000315695369444429
701,-0.000727653503417969,0.0000399833004145651
702,-0.000708103179931641,0.0000380395329955657
703,-0.00067138671875,0.0000392935229153262
704,-0.000672817230224609,0.0000296244079061846
705,-0.000712394714355469,0.0000339108001019461
706,-0.000666141510009766,0.0000359680326102656
707,-0.000679492950439453,0.0000258076410931353
708,-0.00072479248046875,0.0000381581468905344
709,-0.000741481781005859,0.0000325910436290871
710,-0.00074005126953125,0.0000332634506346775
711,-0.000687599182128906,0.0000372871718143989
712,-0.000754833221435547,0.0000357007442176916
713,-0.000691413879394531,0.0000415177050610356
714,-0.000634670257568359,0.0000375189342155271
715,-0.000771999359130859,0.0000420908402818808
716,-0.000738143920898438,0.0000482478153825415
717,-0.000723838806152344,0.0000422747807680159
718,-0.000736236572265625,0.0000320670773097895
719,-0.000763416290283203,0.0000420070262181943
720,-0.000756263732910156,0.000044688063187141
721,-0.000795364379882813,0.0000407116740891779
722,-0.000801563262939453,0.0000359672424079782
723,-0.000828266143798828,0.0000410045300727108
724,-0.000755786895751953,0.0000394465682651325
725,-0.000760555267333984,0.0000462630349949843
726,-0.000775814056396484,0.0000419040577036308
727,-0.000795841217041016,0.0000374969594170259
728,-0.000781059265136719,0.0000406418019440251
729,-0.000786304473876953,0.0000293627749977979
730,-0.000842094421386719,0.0000319383022632262
731,-0.000844955444335938,0.0000445185651386131
732,-0.0009613037109375,0.0000467725968733516
733,-0.000855922698974609,0.0000407849110103703
734,-0.000941753387451172,0.000035372833304163
735,-0.000909805297851563,0.000030828914404382
736,-0.000951290130615234,0.0000272689784155487
737,-0.000965118408203125,0.0000324582181452743
738,-0.000979423522949219,0.0000378380125118534
739,-0.000954151153564453,0.0000521434023722098
740,-0.000980377197265625,0.0000434262278367137
741,-0.000985145568847656,0.0000399953828605503
742,-0.000906467437744141,0.000038267481713488
743,-0.000945091247558594,0.0000523555474071839
744,-0.000855922698974609,0.0000398087637891516
745,-0.000940322875976563,0.0000256136354073766
746,-0.000856399536132813,0.0000334109422134209
747,-0.000945091247558594,0.0000338050305838892
748,-0.000918388366699219,0.000034870296426207
749,-0.000864982604980469,0.0000547947934043726
750,-0.000867366790771484,0.0000482030246909298
751,-0.000880718231201172,0.0000304970821456831
752,-0.000884056091308594,0.0000369033146081384
753,-0.000791072845458984,0.0000515491624074054
754,-0.000873088836669922,0.0000510204618100605
755,-0.000834465026855469,0.0000329595900740422
756,-0.000857353210449219,0.000025110468408883
757,-0.000799179077148438,0.000029524461523125
758,-0.000864028930664063,0.0000385538397541836
759,-0.000870704650878906,0.0000450617421827628
760,-0.000771999359130859,0.0000325552690767526
761,-0.000805854797363281,0.0000390446366410037
762,-0.000911235809326172,0.0000367056223736756
763,-0.000815391540527344,0.0000329198994618955
764,-0.000751495361328125,0.0000392805010349636
765,-0.000734806060791016,0.0000507814783167979
766,-0.000776767730712891,0.0000447490777517095
767,-0.000802993774414063,0.0000301554736859791
768,-0.000732898712158203,0.0000371887130845295
769,-0.000764369964599609,0.0000365045239436693
770,-0.000750541687011719,0.0000406676686294556
771,-0.000652790069580078,0.000038134304565785
772,-0.000794410705566406,0.0000441634621372922
773,-0.000798702239990234,0.0000417668251297526
774,-0.00074005126953125,0.0000367149129764079
775,-0.000739574432373047,0.0000310219129215701
776,-0.000807285308837891,0.0000331984494862668
777,-0.000710010528564453,0.000038559736865572
778,-0.000735282897949219,0.000046473890982306
779,-0.000686168670654297,0.0000371940624941063
780,-0.000752925872802734,0.0000444022199869361
781,-0.000741004943847656,0.0000476586752946425
782,-0.00070953369140625,0.0000397151254127404
783,-0.0007476806640625,0.0000429153442382813
784,-0.000670909881591797,0.0000348091125488281
785,-0.000727653503417969,0.0000361390978269509
786,-0.000670433044433594,0.0000409296029451407
787,-0.000670433044433594,0.0000469642240289039
788,-0.0006561279296875,0.0000360225147061463
789,-0.000642776489257813,0.0000524293243259052
790,-0.00072479248046875,0.0000548663264309783
791,-0.000689506530761719,0.0000369017742422978
792,-0.000720500946044922,0.0000352891714326446
793,-0.000705242156982422,0.0000528106570967138
794,-0.000638008117675781,0.0000424063485704738
795,-0.000710487365722656,0.0000420894897664141
796,-0.000735759735107422,0.0000388827006706184
797,-0.000746726989746094,0.0000420164974689718
798,-0.000699043273925781,0.000038881238722592
799,-0.000721931457519531,0.000041723932533153
800,-0.000746250152587891,0.0000425107747803167
801,-0.000798702239990234,0.0000451335879173805
802,-0.000853538513183594,0.0000365076381327164
803,-0.000682353973388672,0.0000265223925844276
804,-0.000699043273925781,0.0000402270860009706
805,-0.000748157501220703,0.0000428364611545555
806,-0.000691413879394531,0.0000344430276198981
807,-0.000735282897949219,0.0000373747264215472
808,-0.000775814056396484,0.0000382793632574251
809,-0.000761985778808594,0.0000608990313564556
810,-0.000810623168945313,0.0000466910997958895
811,-0.000749111175537109,0.0000363898926321772
812,-0.000801563262939453,0.0000510260321551701
813,-0.000819206237792969,0.0000547636629444765
814,-0.000824451446533203,0.0000365729748477434
815,-0.000768661499023438,0.0000313436565858444
816,-0.000788211822509766,0.0000571588343341937
817,-0.000763893127441406,0.0000450920069707604
818,-0.000864982604980469,0.0000403286982240369
819,-0.000788211822509766,0.0000414244991348124
820,-0.000843524932861328,0.000041774990154944
821,-0.0008392333984375,0.000058162406614964
822,-0.000823974609375,0.0000419785996443892
823,-0.00086212158203125,0.0000503204425315751
824,-0.000816822052001953,0.0000451814216036784
825,-0.000852584838867188,0.0000556930695289715
826,-0.000863075256347656,0.0000554793425021875
827,-0.000857830047607422,0.0000495084661575981
828,-0.000871181488037109,0.0000612972265824434
829,-0.000944614410400391,0.0000381775078155971
830,-0.000971317291259766,0.0000483842883833535
831,-0.000982761383056641,0.0000579165792064438
832,-0.000951766967773438,0.0000568066975692838
833,-0.000990867614746094,0.0000509535701697982
834,-0.00110244750976562,0.0000411097517159941
835,-0.000951290130615234,0.000042916668765503
836,-0.00102519989013672,0.0000517318872646924
837,-0.000998973846435547,0.0000474638638997242
838,-0.00108051300048828,0.0000570523255512656
839,-0.00107240676879883,0.0000478657585399388
840,-0.00104665756225586,0.0000355667463134938
841,-0.00100088119506836,0.0000553685765213546
842,-0.000895500183105469,0.0000602505968044211
843,-0.000948429107666016,0.0000491176992874301
844,-0.000997543334960938,0.000046632626260367
845,-0.00092315673828125,0.000030500809711809
846,-0.00106143951416016,0.0000349427622996545
847,-0.000951290130615234,0.0000439350522666733
848,-0.000938892364501953,0.0000470005206755066
849,-0.000872135162353516,0.0000450617421827628
850,-0.000803947448730469,0.0000356800393610581
851,-0.000897884368896484,0.000038571528383562
852,-0.000884532928466797,0.0000391972035786838
853,-0.000836849212646484,0.0000566353285456849
854,-0.000798225402832031,0.0000459993415569692
855,-0.000880718231201172,0.0000435830206003756
856,-0.000872611999511719,0.0000435177589354815
857,-0.000870227813720703,0.0000283412408022769
858,-0.000860214233398438,0.0000397923394108297
859,-0.000867366790771484,0.0000431089537430033
860,-0.000757217407226563,0.0000286335651279903
861,-0.00077056884765625,0.0000371902415657815
862,-0.000795364379882813,0.0000491789974042747
863,-0.000799179077148438,0.0000611151975085246
864,-0.000847339630126953,0.0000509881418078549
865,-0.000833034515380859,0.0000660724947955657
866,-0.000824928283691406,0.0000512283804347335
867,-0.000776767730712891,0.0000432557276579918
868,-0.000692844390869141,0.0000302397103030736
869,-0.000784873962402344,0.0000381298324701655
870,-0.000741958618164063,0.0000537643147069672
871,-0.000696659088134766,0.0000519314852900644
872,-0.000731945037841797,0.0000513845969730671
873,-0.000746726989746094,0.0000579764179997118
874,-0.000712871551513672,0.0000479582986973685
875,-0.000669956207275391,0.0000541141900616963
876,-0.000665664672851563,0.0000598739263275403
877,-0.000720024108886719,0.0000610910100483304
878,-0.000677108764648438,0.0000660570072394373
879,-0.000710487365722656,0.0000602826655662426
880,-0.000610828399658203,0.0000495084661575981
881,-0.000704765319824219,0.0000511928606659043
882,-0.000670909881591797,0.0000550937825923164
883,-0.000631809234619141,0.0000572750705146422
884,-0.000603675842285156,0.0000597874698548371
885,-0.000602245330810547,0.0000471574833157213
886,-0.000585079193115234,0.000045350949066384
887,-0.000572681427001953,0.0000426069410394453
888,-0.000665187835693359,0.0000458966601850704
889,-0.000635623931884766,0.0000477516167703508
890,-0.000607490539550781,0.0000449151748896748
891,-0.000700950622558594,0.0000384223949179908
892,-0.000648975372314453,0.0000463661309720334
893,-0.000548839569091797,0.0000582288266085577
894,-0.000648975372314453,0.0000501575122184269
895,-0.000638008117675781,0.0000583770215713611
896,-0.000570774078369141,0.0000447643183984879
897,-0.000610828399658203,0.0000592593682921359
898,-0.000617504119873047,0.0000681326717357321
899,-0.000678062438964844,0.0000655178419874524
900,-0.000635623931884766,0.0000629966676196938
901,-0.000693321228027344,0.0000432412698704307
902,-0.000637531280517578,0.000043364662834539
903,-0.000640392303466797,0.0000525300573498551
904,-0.000703334808349609,0.0000489472820302143
905,-0.000695705413818359,0.0000457229401817381
906,-0.000692844390869141,0.0000503001051042099
907,-0.000728607177734375,0.0000669663422979549
908,-0.000634193420410156,0.0000471972446051392
909,-0.000764369964599609,0.000054026933639644
910,-0.000674724578857422,0.0000641199719226742
911,-0.000739097595214844,0.0000653736613907389
912,-0.000823020935058594,0.0000593360571440396
913,-0.000792026519775391,0.0000647902214538039
914,-0.000804424285888672,0.0000622048648314014
915,-0.00083160400390625,0.0000527708166507871
916,-0.000963211059570313,0.0000564433012276288
917,-0.000844001770019531,0.000056132260843962
918,-0.000850677490234375,0.0000598853178661379
919,-0.00100898742675781,0.000077304995386291
920,-0.00101995468139648,0.0000764889014356319
921,-0.000978469848632813,0.0000527600437984444
922,-0.00100135803222656,0.0000612471297079499
923,-0.00106620788574219,0.0000547595108793472
924,-0.00114727020263672,0.0000458198082951586
925,-0.0011897087097168,0.00006467958143402
926,-0.0011754035949707,0.0000503926869117706
927,-0.00137853622436523,0.0000543761645894945
928,-0.00144815444946289,0.0000548424924557872
929,-0.00149631500244141,0.0000682843463929645
930,-0.0014042854309082,0.0000674804608616569
931,-0.00154399871826172,0.0000838162540929237
932,-0.00172805786132812,0.0000493958187621313
933,-0.00178623199462891,0.000045281958936723
934,-0.00201559066772461,0.0000771946195405886
935,-0.00199365615844727,0.0000822015260613936
936,-0.00189495086669922,0.0000749954347661495
937,-0.00208806991577148,0.0000794531479867594
938,-0.0021824836730957,0.0000675545486242126
939,-0.00220203399658203,0.0000723285111460058
940,-0.00231027603149414,0.0000712117622546332
941,-0.00244855880737305,0.0000611561083405879
942,-0.00258445739746094,0.0000553264684003463
943,-0.00255537033081055,0.0000406117199616853
944,-0.00263023376464844,0.0000558143953406979
945,-0.00274658203125,0.0000818939187661305
946,-0.00284481048583984,0.0000817827856999144
947,-0.00305747985839844,0.0000860899083792496
948,-0.00312280654907227,0.0000762089613618141
949,-0.00326061248779297,0.0000721333431142833
950,-0.00340604782104492,0.0000965356797340564
951,-0.00340938568115234,0.0000794116420206637
952,-0.0036768913269043,0.0000928155903670993
953,-0.00392389297485352,0.000101712842024334
954,-0.00424289703369141,0.0000988353572583827
955,-0.00436830520629883,0.0000794087787405596
956,-0.00453853607177734,0.000130144227037227
957,-0.00456857681274414,0.0000781096526248084
958,-0.00488424301147461,0.0000770147368859503
959,-0.00516605377197266,0.0000676638480189009
960,-0.00514888763427734,0.0000630255353804572
961,-0.00517034530639648,0.000133033294335664
962,-0.00522756576538086,0.000146745037578371
963,-0.00536489486694336,0.00013479571637118
964,-0.00521373748779297,0.000135065335035165
965,-0.00528669357299805,0.000131741745069408
966,-0.00518941879272461,0.000153340035623237
967,-0.00490856170654297,0.000177936307588191
968,-0.00484752655029297,0.000158806103741202
969,-0.00481033325195313,0.000141645519241206
970,-0.00480031967163086,0.000141930962617635
971,-0.00453853607177734,0.000103151240981587
972,-0.00435829162597656,0.000111028335067361
973,-0.00431966781616211,0.000113023483549887
974,-0.00412273406982422,0.000162757312228478
975,-0.00431966781616211,0.000149769382150778
976,-0.00425100326538086,0.000161714596294765
977,-0.00419950485229492,0.00012054458449149
978,-0.00388908386230469,0.000155799563849254
979,-0.00360918045043945,0.000116720931649844
980,-0.00364971160888672,0.000160642468445007
981,-0.00359058380126953,0.000162472072136283
982,-0.00352096557617187,0.000140934221507833
983,-0.00304317474365234,0.000140598248008411
984,-0.00257349014282227,0.000146695446891338
985,-0.00303173065185547,0.000107701882186023
986,-0.00287389755249023,0.000140901951175281
987,-0.0026092529296875,0.000158625598247098
988,-0.00229787826538086,0.000155992085523384
989,-0.00189399719238281,0.000159921827821767
990,-0.00223398208618164,0.000173117501751907
991,-0.0021824836730957,0.00020705497157077
992,-0.00217723846435547,0.000174316430626128
993,-0.00198984146118164,0.000157165411606533
994,-0.00131511688232422,0.000166658509226032
995,-0.00141811370849609,0.000179711315336449
996,-0.00153255462646484,0.000162991841019074
997,-0.00124597549438477,0.000211930380909284
998,-0.00110435485839844,0.000186822826965117
999,-0.00109767913818359,0.00020923970931433
1000,-0.00113916397094727,0.000141661570634451
1001,-0.000614166259765625,0.000150245327707733
1002,-0.000801563262939453,0.000165618388806224
1003,-0.000860691070556641,0.000219821412754071
1004,-0.000812053680419922,0.000264785059190037
1005,-0.000324726104736328,0.000226195786748865
1006,-0.000436782836914063,0.000211960419130976
1007,-0.000592708587646484,0.00024274711476734
1008,-0.0000844001770019531,0.000240045717157223
1009,-0.000203132629394531,0.000232438428974469
1010,0.000236034393310547,0.000197827088684258
1011,-0.000260829925537109,0.000174525005550424
1012,-0.000122547149658203,0.000261285878481565
1013,-0.000019073486328125,0.000240960871846829
1014,-0.000193595886230469,0.00021399737667474
1015,0.0000395774841308594,0.000201082857179375
1016,-0.000393867492675781,0.000190958845233427
1017,0.000293731689453125,0.000332973035131866
1018,-0.00017547607421875,0.000268414851108586
1019,0.000222206115722656,0.000278962371409656
1020,0.0000872611999511719,0.000270446970618232
1021,0.000742912292480469,0.000225724859469937
1022,-0.000132560729980469,0.000285956027471009
1023,-0.0000467300415039063,0.0003509521484375
1024,0.000339984893798828,0.000416081885536826
1025,-0.0000677108764648438,0.000296621842502391
1026,0.000600814819335938,0.000273323791140889
1027,0.000102996826171875,0.000237987127925456
1028,0.0000300407409667969,0.00024272838066623
1029,0.000279426574707031,0.000227806425904019
1030,-0.0001220703125,0.000385510972901305
1031,0.000565528869628906,0.000352936813544323
1032,-0.000149250030517578,0.000316246225883817
1033,-0.000525474548339844,0.000342282733282854
1034,0.000109195709228516,0.000347451707053702
1035,0.000249385833740234,0.000355974827492926
1036,0.000193119049072266,0.000439460741083058
1037,-0.000278949737548828,0.000408047808526125
1038,0.000590324401855469,0.000416466418342349
1039,-0.0006103515625,0.000334286994986996
1040,0.000392436981201172,0.000349581155224112
1041,0.000148773193359375,0.000504838829043109
1042,-0.000104904174804687,0.000441228736465233
1043,-0.000343799591064453,0.00032912128308749
1044,-0.000577926635742188,0.000456514242869876
1045,-0.000700473785400391,0.000533744175074293
1046,-0.0000238418579101562,0.00049165217772161
1047,-0.000561237335205078,0.000349122961079332
1048,-0.000319004058837891,0.000408234992562949
1049,-0.000960826873779297,0.000364478304045331
1050,-0.000849723815917969,0.000404546801514766
1051,-0.00022125244140625,0.000527174048139085
1052,-0.000536918640136719,0.000664075139570559
1053,-0.00161218643188477,0.000543242893033383
1054,-0.000844001770019531,0.000423388436002493
1055,-0.00188302993774414,0.000700908452017569
1056,-0.00018310546875,0.000946875177122169
1057,-0.000527381896972656,0.000857416326726459
1058,-0.00115251541137695,0.000575855054874075
1059,-0.00114297866821289,0.000756561321766175
1060,-0.000876426696777344,0.000720321518061656
1061,-0.00164985656738281,0.000693163138813813
1062,-0.00139188766479492,0.00095394893506998
1063,-0.000965118408203125,0.00052966628520955
1064,-0.000820159912109375,0.000745692821949061
1065,-0.00266885757446289,0.000804602762038252
1066,-0.00203323364257812,0.000668040519896477
1067,-0.0000720024108886719,0.00100667540771764
1068,-0.00107765197753906,0.000748594854006095
1069,-0.00106334686279297,0.000823709657244489
1070,-0.00157880783081055,0.000994400192879097
1071,-0.000388622283935547,0.000850412301780363
1072,-0.00184059143066406,0.00122527221068632
1073,-0.00287103652954102,0.00125658235607525
1074,-0.000895500183105469,0.00105412724413995
1075,-0.00129508972167969,0.0012254859685971
1076,-0.000341892242431641,0.00117547158824188
1077,-0.0009613037109375,0.00112656994392592
1078,-0.000360012054443359,0.00122313257695065
1079,-0.00137996673583984,0.00105169480966567
1080,-0.000686168670654297,0.00116861804724716
1081,-0.00141572952270508,0.00103030729012218
1082,0.00101089477539062,0.00111801221391173
1083,0.000519752502441406,0.000746395017804109
1084,-0.000929355621337891,0.00110844364158105
1085,-0.00367116928100586,0.00151899693173155
1086,-0.00103902816772461,0.00155886286369759
1087,0.00129318237304687,0.00165756387823742
1088,-0.00213766098022461,0.00171361024674884
1089,-0.0028996467590332,0.00111470127725763
1090,-0.0022883415222168,0.000907400940847789
1091,-0.00320529937744141,0.00155751805004939
1092,-0.00440311431884766,0.00172646977965351
1093,-0.00256872177124023,0.00158896680260557
1094,-0.00298452377319336,0.00196536520225064
1095,-0.0007476806640625,0.00191332072851621
1096,-0.00415420532226563,0.00209395957011822
1097,-0.000521659851074219,0.00218770809546177
1098,0.000483989715576172,0.00193867703993795
1099,-0.00266551971435547,0.00195526958979997
1100,-0.00406074523925781,0.00239392845818256
