Wavelength (nm),Absorbance (AU),Std.Dev.
190,0.402777671813965,0.000117584601272242
191,0.407874584197998,0.0000866270210980871
192,0.411520004272461,0.0000873900853117062
193,0.414735317230225,0.0000564724992519967
194,0.416728019714356,0.0000606202387203607
195,0.417769432067871,0.0000794459933327583
196,0.418385028839111,0.0000803099102080355
197,0.417876243591309,0.0000765097070592092
198,0.41610860824585,0.0000734870884268264
199,0.413097858428955,0.0000608756917760408
200,0.409266948699951,0.00006144172143897
201,0.405081272125244,0.0000698497267543752
202,0.400572776794434,0.0000797473617253085
203,0.395477771759033,0.0000625511487266792
204,0.38964319229126,0.0000503373841110102
205,0.382959842681885,0.0000491859320000749
206,0.375008583068848,0.0000543730283775938
207,0.365828514099121,0.0000578301452985965
208,0.355532169342041,0.000045342174334252
209,0.344242572784424,0.0000469884249086039
210,0.331850051879883,0.0000529557666933366
211,0.31833553314209,0.000049646053637773
212,0.304200172424316,0.0000578262134149029
213,0.28906774520874,0.0000398822334700946
214,0.273784637451172,0.0000357325744167905
215,0.257972240447998,0.0000309779049841683
216,0.242154598236084,0.0000261582234591147
217,0.226263523101807,0.0000376731533338617
218,0.210731029510498,0.0000300998144763882
219,0.195415019989014,0.000024251986618683
220,0.180912494659424,0.0000243473118349837
221,0.166860580444336,0.000027213159701119
222,0.153678417205811,0.0000245773593073865
223,0.141273021697998,0.0000232583403446781
224,0.129940032958984,0.0000263606216516976
225,0.119329452514648,0.0000326049937821621
226,0.109715938568115,0.0000335298246077885
227,0.10102653503418,0.0000253767431376466
228,0.0930867195129395,0.0000249748440467533
229,0.0861029624938965,0.0000412388337065642
230,0.0798811912536621,0.0000395149575817504
231,0.0743355751037598,0.0000355443642171346
232,0.0693855285644531,0.0000365434322320299
233,0.0649256706237793,0.0000335704873711178
234,0.0611310005187988,0.0000356138625403256
235,0.0578536987304688,0.0000529836680861175
236,0.054995059967041,0.0000391464140001166
237,0.0525999069213867,0.0000412643261422685
238,0.0505595207214356,0.0000377153776803688
239,0.0487432479858398,0.0000295812033214215
240,0.0472607612609863,0.0000364476432540855
241,0.0459709167480469,0.0000362968307009985
242,0.0447874069213867,0.0000527665077737773
243,0.0437831878662109,0.0000401952795024583
244,0.0428876876831055,0.0000335298246077885
245,0.0420575141906738,0.0000420421943941658
246,0.0412921905517578,0.0000354635114208305
247,0.0406537055969238,0.0000410495591780203
248,0.040095329284668,0.000036892530696649
249,0.0395102500915527,0.0000339300716502035
250,0.0389504432678223,0.0000362983967383502
251,0.0384817123413086,0.0000304196320759324
252,0.0380663871765137,0.0000363445644833922
253,0.0376534461975098,0.0000318081123662427
254,0.0372819900512695,0.0000309209686982603
255,0.0368728637695312,0.0000305603889354026
256,0.0365657806396484,0.0000297498240610391
257,0.036198616027832,0.0000340788481428755
258,0.0358986854553223,0.0000336127921077292
259,0.0356049537658691,0.0000300799787186911
260,0.0352940559387207,0.0000300506734322582
261,0.0349130630493164,0.000049241373609259
262,0.0346493721008301,0.0000398373117965419
263,0.0343060493469238,0.0000322156350482283
264,0.033963680267334,0.0000337595993483217
265,0.0336318016052246,0.0000472730596544565
266,0.033353328704834,0.0000404110700235982
267,0.032862663269043,0.0000404855527670229
268,0.0325193405151367,0.0000466070210198734
269,0.0322065353393555,0.0000496334573306122
270,0.0317897796630859,0.0000514641842294278
271,0.031374454498291,0.000049491240828173
272,0.0310521125793457,0.0000329501031901485
273,0.0306658744812012,0.0000448353729168568
274,0.0302605628967285,0.0000402433329479963
275,0.0298676490783691,0.0000440926140286257
276,0.0295023918151855,0.0000403378589527336
277,0.0291404724121094,0.0000483302158884928
278,0.028749942779541,0.0000416325537038476
279,0.0282659530639648,0.0000564865894482476
280,0.027888298034668,0.0000555387367614972
281,0.0275378227233887,0.0000470476644525513
282,0.0270986557006836,0.0000325631253940636
283,0.0265908241271973,0.0000399498769879822
284,0.0262441635131836,0.0000345632939804461
285,0.025784969329834,0.0000470645763411078
286,0.0253653526306152,0.0000524856719956264
287,0.0249500274658203,0.0000386157145081582
288,0.02447509765625,0.0000384859580270009
289,0.0240569114685059,0.0000320191802295676
290,0.0236191749572754,0.0000378282464092903
291,0.0232057571411133,0.0000426216139998675
292,0.0228142738342285,0.0000484512075403044
293,0.0224862098693848,0.0000425368412762205
294,0.022066593170166,0.0000384438407339981
295,0.0216569900512695,0.0000295499607246829
296,0.0212802886962891,0.000033520499110568
297,0.0209202766418457,0.0000374051321591026
298,0.0205011367797852,0.0000367288444741282
299,0.0202951431274414,0.0000314115912456836
300,0.0198893547058105,0.0000307430565396262
301,0.0195465087890625,0.0000284733078777699
302,0.0192351341247559,0.0000338050305838892
303,0.0188479423522949,0.0000448201564314646
304,0.0185699462890625,0.000037181069735752
305,0.0182576179504395,0.0000438625393104743
306,0.0179276466369629,0.0000412167734796661
307,0.017613410949707,0.0000380499918315994
308,0.0173726081848145,0.0000476288479799494
309,0.0171465873718262,0.0000607167446986319
310,0.0167889595031738,0.0000634193420410156
311,0.0165219306945801,0.0000574098868870804
312,0.0163111686706543,0.0000435530123801461
313,0.0159921646118164,0.0000475595765678088
314,0.015690803527832,0.0000507389243106907
315,0.0154328346252441,0.0000500383744138523
316,0.0152239799499512,0.0000651052997659387
317,0.0149235725402832,0.000077143056767124
318,0.0145888328552246,0.0000527902022450187
319,0.0144767761230469,0.0000536934308624664
320,0.0141372680664062,0.0000515601882587939
321,0.0139341354370117,0.0000494395288308328
322,0.0136690139770508,0.0000499462739363551
323,0.0134296417236328,0.0000395458738643939
324,0.0131659507751465,0.000042849065674809
325,0.0129055976867676,0.0000381752743638261
326,0.0126967430114746,0.0000441325605856575
327,0.0124711990356445,0.0000442084881812566
328,0.0122075080871582,0.0000656582430956211
329,0.012052059173584,0.00005192929607415
330,0.011744499206543,0.0000362819499748648
331,0.0115766525268555,0.0000462372250827728
332,0.0113682746887207,0.0000603919484778158
333,0.0111966133117676,0.0000493463106742469
334,0.0109891891479492,0.0000602826655662426
335,0.0107583999633789,0.0000660242993571128
336,0.0105323791503906,0.0000514442989584026
337,0.0102787017822266,0.0000353382663546628
338,0.0101346969604492,0.000044754158543977
339,0.00997304916381836,0.0000482548837965044
340,0.00972747802734375,0.0000457142368524155
341,0.00959682464599609,0.0000436182212988018
342,0.00934648513793945,0.0000510393985030497
343,0.00924015045166016,0.0000422034558606823
344,0.00908374786376953,0.0000389681291756177
345,0.00888633728027344,0.0000419291456927883
346,0.00872468948364258,0.0000437938003873112
347,0.0085911750793457,0.0000628286111526425
348,0.00832653045654297,0.0000532415966303676
349,0.00817966461181641,0.0000751256904916814
350,0.00807428359985352,0.000052068128631125
351,0.00787639617919922,0.0000472044703322013
352,0.00762176513671875,0.0000527902022450187
353,0.0074763298034668,0.0000430627780513072
354,0.00737428665161133,0.0000495073179887612
355,0.00733232498168945,0.0000639601998791016
356,0.00718259811401367,0.0000533280062031783
357,0.0070343017578125,0.0000443471375146834
358,0.00681161880493164,0.0000593053935034044
359,0.00667333602905273,0.0000663814871036333
360,0.00650787353515625,0.000048398384316175
361,0.00623798370361328,0.0000483878127515254
362,0.00613975524902344,0.0000635912007887717
363,0.00596380233764648,0.0000531240252578944
364,0.00580739974975586,0.0000599924821006009
365,0.00582456588745117,0.0000635142798881781
366,0.00562763214111328,0.0000461560142567072
367,0.00548362731933594,0.0000583770215713611
368,0.00543212890625,0.0000553244135258483
369,0.00522899627685547,0.0000793242654817302
370,0.00519180297851563,0.0000660776565076001
371,0.00518369674682617,0.0000626800585352599
372,0.00513839721679688,0.0000608728904250353
373,0.00502586364746094,0.0000832896802597597
374,0.00495529174804688,0.0000883886841639214
375,0.0049285888671875,0.0000605339091207823
376,0.0047450065612793,0.0000526597507182256
377,0.00478553771972656,0.0000668610038280116
378,0.0047602653503418,0.0000663146609487491
379,0.00452327728271484,0.0000485613640135806
380,0.00440502166748047,0.0000451486987669476
381,0.00429964065551758,0.000056352590340444
382,0.00437593460083008,0.0000788470103045693
383,0.00403881072998047,0.000109956208637886
384,0.00400495529174805,0.000104009541534602
385,0.00394678115844727,0.0000986718844579305
386,0.00401782989501953,0.0000694972777435572
387,0.00403404235839844,0.0000488007364349393
388,0.00368547439575195,0.000053802362978477
389,0.00348615646362305,0.0000607270420983418
390,0.00375699996948242,0.0000629948629454079
391,0.00361061096191406,0.0000474039453464104
392,0.00352716445922852,0.0000541267938094069
393,0.00323390960693359,0.0000718728219314839
394,0.00321769714355469,0.0000903578106076922
395,0.00321722030639648,0.0000663043740238522
396,0.00310897827148437,0.0000545410835593116
397,0.00311851501464844,0.0000482218890003071
398,0.00302886962890625,0.0000521324998688242
399,0.00259590148925781,0.0000659450446699921
400,0.00273609161376953,0.0000783000880245438
401,0.00266408920288086,0.0000923120285134145
402,0.00262594223022461,0.0000874421063207252
403,0.00249910354614258,0.0000747570569827304
404,0.00256204605102539,0.000069510363278929
405,0.00239801406860352,0.0000585190133704467
406,0.00217056274414062,0.0000838799798099366
407,0.00218677520751953,0.0000601022926498368
408,0.00233554840087891,0.0000830682629067877
409,0.00202131271362305,0.0000880355558916851
410,0.00195407867431641,0.0000809331875201307
411,0.0021052360534668,0.0000843381923501484
412,0.00205612182617187,0.0000798171849431181
413,0.00187206268310547,0.0000511528714443355
414,0.00173282623291016,0.0000590585487571374
415,0.00167417526245117,0.0000563848598196802
416,0.00156307220458984,0.0000581301460311222
417,0.00166988372802734,0.0000671189588086463
418,0.00170993804931641,0.0000587042512247226
419,0.00162363052368164,0.0000482195313652309
420,0.00157833099365234,0.0000656513167552785
421,0.00163841247558594,0.000088947706045309
422,0.00121021270751953,0.0000629713974732177
423,0.00136089324951172,0.000052180453844641
424,0.00116729736328125,0.0000510983913832163
425,0.00121974945068359,0.0000875096874004704
426,0.00126838684082031,0.000100249271591323
427,0.00136137008666992,0.0000572115175890576
428,0.000988483428955078,0.000054092126436675
429,0.00144195556640625,0.000056241522791693
430,0.000875949859619141,0.0000761582240265712
431,0.000689506530761719,0.000096457922428057
432,0.000799655914306641,0.000099497989069118
433,0.00107240676879883,0.0000809654891710278
434,0.000748634338378906,0.0000725905291921536
435,0.000619888305664063,0.0000636894525797424
436,0.000814437866210938,0.0000646145140698948
437,0.000829219818115234,0.0000910421878285423
438,0.000848770141601563,0.0000757150743178016
439,0.000642776489257813,0.0000793572220327249
440,0.000828742980957031,0.0000690228992549722
441,0.000892162322998047,0.0000616891660333756
442,0.000296115875244141,0.000087823515178939
443,0.000725269317626953,0.0000746946801855797
444,0.000453948974609375,0.0000567005298381733
445,0.0004730224609375,0.0000476419742990576
446,0.000535011291503906,0.0000477027854934685
447,0.000300407409667969,0.0000342070428018812
448,0.000422000885009766,0.0000568796978532916
449,0.000454902648925781,0.0000621756160394558
450,0.000234603881835937,0.0000657758792897048
451,0.000233173370361328,0.0000909597345094428
452,0.000255107879638672,0.0000730681960437134
453,0.000188350677490234,0.0000730697519275793
454,0.000405788421630859,0.0000829915861791205
455,0.000208377838134766,0.0000794760385513331
456,0.000241279602050781,0.0000591787380400629
457,0.000328540802001953,0.0000645300045875355
458,0.000207424163818359,0.0000696590382336278
459,0.0000514984130859375,0.0000822112066725095
460,-0.0000567436218261719,0.0000716129405179127
461,0.000133514404296875,0.0000726703583715156
462,0.0000929832458496094,0.000082630527651013
463,0.000267505645751953,0.0000831653764093428
464,0.0000562667846679688,0.0000649969452338743
465,-0.0000829696655273438,0.0000506839993011368
466,-0.000255107879638672,0.0000489786276120904
467,-0.00002288818359375,0.0000569825391867287
468,-0.000264167785644531,0.0000660363515143421
469,-0.00025177001953125,0.0000758201070708241
470,-0.000185966491699219,0.000068927301908506
471,-0.0000367164611816406,0.0000824776674131284
472,-0.000181674957275391,0.0000757255841488087
473,-0.000195980072021484,0.000063970863763336
474,-0.000239849090576172,0.000068468901263921
475,-0.0000996589660644531,0.0000813744649747895
476,-0.000284671783447266,0.0000671782160391095
477,-0.00023651123046875,0.0000486245325334491
478,-0.00020599365234375,0.0000577475195215185
479,-0.000293254852294922,0.000070691008189807
480,-0.000322818756103516,0.0000602062383305584
481,-0.000380992889404297,0.0000695773880212663
482,-0.000491142272949219,0.0000933213079463992
483,-0.000233650207519531,0.0000827995837064676
484,-0.000649929046630859,0.0000801256706668662
485,0.00304174423217773,0.0000543740738016598
486,-0.00248098373413086,0.0000594642893983896
487,-0.000524044036865234,0.0000775941681167907
488,-0.0007781982421875,0.0000703508549583645
489,-0.000405311584472656,0.0000572472747910416
490,-0.000569343566894531,0.0000786376617851115
491,-0.000661849975585938,0.0000840424645876628
492,-0.000670433044433594,0.0000863101600539972
493,-0.000665664672851563,0.0000767144891236146
494,-0.000703334808349609,0.0000556154456414044
495,-0.000463485717773438,0.0000747783444599799
496,-0.000615119934082031,0.0000702732442466659
497,-0.000673770904541016,0.000068211051308383
498,-0.000516414642333984,0.0000604596798971275
499,-0.000535964965820313,0.0000800220271019658
500,-0.000754356384277344,0.000070192308504418
501,-0.000524997711181641,0.0000749423588975105
502,-0.000653743743896484,0.0000865613776493666
503,-0.000684738159179688,0.0000866480164985646
504,-0.000787258148193359,0.0000680291392711355
505,-0.000611782073974609,0.000051216173292729
506,-0.000834941864013672,0.000054535872246029
507,-0.000850677490234375,0.000049251761963062
508,-0.000749111175537109,0.0000711270994671645
509,-0.000843524932861328,0.000072920235695693
510,-0.000836849212646484,0.0000711606571484287
511,-0.000782489776611328,0.000062861173275146
512,-0.000726222991943359,0.0000637554640473949
513,-0.000716209411621094,0.0000469726957550993
514,-0.000836849212646484,0.0000686910366263165
515,-0.000835418701171875,0.0000937345910882283
516,-0.00092315673828125,0.0000814777834867643
517,-0.00101613998413086,0.0000800916108690821
518,-0.000937461853027344,0.0000939308687381266
519,-0.000952720642089844,0.000071281971950346
520,-0.000923633575439453,0.0000531860498268978
521,-0.000887870788574219,0.0000693564523146695
522,-0.00112104415893555,0.0000656062777189834
523,-0.0010218620300293,0.0000651000609568563
524,-0.000934600830078125,0.0000569166622429447
525,-0.000990867614746094,0.0000493301810399191
526,-0.000925540924072266,0.0000777858655362261
527,-0.00106668472290039,0.0000594996481220782
528,-0.000979900360107422,0.0000540637456880556
529,-0.00104475021362305,0.0000794889115971025
530,-0.00100851058959961,0.0000571717611354958
531,-0.00103664398193359,0.0000444354925431127
532,-0.000871181488037109,0.0000574108770114609
533,-0.000978469848632813,0.0000544325855044638
534,-0.00110864639282227,0.000061576646642143
535,-0.00118541717529297,0.000069957065334676
536,-0.00114536285400391,0.000055739999893201
537,-0.001007080078125,0.0000508810049880763
538,-0.00112295150756836,0.0000486969583037297
539,-0.00118827819824219,0.0000667963594309042
540,-0.00110244750976562,0.0000800845132546065
541,-0.00119829177856445,0.0000843867059506803
542,-0.00105667114257812,0.0000538097581292821
543,-0.00113916397094727,0.0000516967134464054
544,-0.00117874145507812,0.0000739420543378933
545,-0.00122642517089844,0.0000912268122241109
546,-0.0011286735534668,0.0000787214680008274
547,-0.00110721588134766,0.0000637625963288857
548,-0.00126552581787109,0.000065666899993687
549,-0.00122261047363281,0.000044394538163404
550,-0.00118732452392578,0.0000625493311982766
551,-0.00120401382446289,0.0000493094351858973
552,-0.00125455856323242,0.0000522642674294519
553,-0.00116252899169922,0.0000535853381097372
554,-0.00128316879272461,0.0000621207374362421
555,-0.00112485885620117,0.0000422848641982769
556,-0.00120115280151367,0.000046530120756027
557,-0.00127172470092773,0.000060201517420472
558,-0.00130891799926758,0.000072615583087957
559,-0.00129222869873047,0.000059340846906573
560,-0.00125551223754883,0.0000573851282253889
561,-0.00128364562988281,0.0000544461595853292
562,-0.00122880935668945,0.0000408496683472202
563,-0.00121164321899414,0.0000462396837903378
564,-0.0013270378112793,0.000067450128776331
565,-0.00127458572387695,0.0000715970635771305
566,-0.00119781494140625,0.0000539300507085994
567,-0.00118398666381836,0.0000504862248709352
568,-0.00124740600585937,0.0000489019696073092
569,-0.00118303298950195,0.000038897317128796
570,-0.00120639801025391,0.0000376814511361243
571,-0.00116443634033203,0.0000395322161627728
572,-0.00151968002319336,0.0000508508320873725
573,-0.00101232528686523,0.0000513303628570476
574,-0.00127601623535156,0.0000532159668487331
575,-0.00150489807128906,0.0000504220066237799
576,-0.00101137161254883,0.0000504963571285902
577,-0.00111722946166992,0.0000467154421674904
578,-0.00149297714233398,0.0000367443177210016
579,-0.0012354850769043,0.0000417987957016203
580,-0.000941276550292969,0.0000483560841907014
581,-0.0009307861328125,0.0000548362731933594
582,-0.00167512893676758,0.0000457676740180313
583,-0.0015721321105957,0.0000454160797161455
584,-0.000932216644287109,0.0000475786959963471
585,-0.00122785568237305,0.0000389615644023424
586,-0.00161409378051758,0.0000426389482614673
587,-0.000990867614746094,0.0000755196259335452
588,-0.0016021728515625,0.0000708034942370246
589,-0.00148868560791016,0.0000643323840722362
590,-0.00123453140258789,0.0000426149450986986
591,-0.00141668319702148,0.0000236094592345755
592,-0.000885963439941406,0.0000338041898195893
593,-0.00137138366699219,0.0000549294881928795
594,-0.00123071670532227,0.0000584548680142287
595,-0.00141668319702148,0.0000536902547700167
596,-0.00153827667236328,0.000053275750492676
597,-0.00119256973266602,0.0000548849718876639
598,-0.00136232376098633,0.0000543709374691588
599,-0.00127220153808594,0.0000566242870530194
600,-0.00131845474243164,0.0000476908678413242
601,-0.00150203704833984,0.0000418877763789934
602,-0.00136804580688477,0.0000591018450557734
603,-0.00141429901123047,0.0000553151656459562
604,-0.00162982940673828,0.0000566272985827145
605,-0.00121688842773437,0.0000536658984831308
606,-0.00169038772583008,0.0000508754187639574
607,-0.00142002105712891,0.0000491257996490079
608,-0.0016179084777832,0.0000475009754453623
609,-0.00157737731933594,0.0000423379306338503
610,-0.00145626068115234,0.000040773759593911
611,-0.00169610977172852,0.0000493578286144813
612,-0.00157451629638672,0.0000413283322906884
613,-0.00160455703735352,0.0000473847554072184
614,-0.00175094604492187,0.0000556277092458845
615,-0.00164365768432617,0.0000469678549558125
616,-0.00186872482299805,0.0000436364623336877
617,-0.00156164169311523,0.0000522348935609022
618,-0.00161075592041016,0.0000625856717377113
619,-0.00153636932373047,0.000049159344070567
620,-0.00146341323852539,0.000038327594153819
621,-0.00173616409301758,0.0000361453889050431
622,-0.00155210494995117,0.0000489484433356471
623,-0.00171184539794922,0.000063878384290026
624,-0.00171184539794922,0.0000459300877504312
625,-0.0017695426940918,0.0000559547630756606
626,-0.00184202194213867,0.0000519577486861921
627,-0.00163936614990234,0.0000550308094000843
628,-0.00181865692138672,0.0000505244916273402
629,-0.00166893005371094,0.0000520637615986061
630,-0.00180959701538086,0.0000498015266004444
631,-0.00171899795532227,0.0000515171740938022
632,-0.00173187255859375,0.0000487296314319264
633,-0.00176906585693359,0.000058796167914575
634,-0.00179290771484375,0.0000579754375338348
635,-0.00174236297607422,0.0000567326014099184
636,-0.00172138214111328,0.0000488426514713359
637,-0.00191259384155273,0.0000522533901441816
638,-0.00178861618041992,0.0000541131396168774
639,-0.00197315216064453,0.0000600483591117734
640,-0.00181865692138672,0.0000645722731540248
641,-0.00169706344604492,0.0000629786185497248
642,-0.00162506103515625,0.0000592564905294756
643,-0.00161361694335937,0.0000555602259233621
644,-0.00172901153564453,0.0000569106696485916
645,-0.00177478790283203,0.000058341956783992
646,-0.00179386138916016,0.000053695548153063
647,-0.00179862976074219,0.0000532266474242242
648,-0.00176906585693359,0.0000533525167435785
649,-0.00181150436401367,0.0000433567971802222
650,-0.00188493728637695,0.0000487366299667686
651,-0.00185346603393555,0.0000588715290678031
652,-0.00178146362304687,0.0000704461343171077
653,-0.00175762176513672,0.0000594547293768814
654,-0.00206470489501953,0.0000560166975816526
655,0.000939846038818359,0.000036730392092141
656,-0.00112485885620117,0.0000486724390640436
657,-0.00553417205810547,0.0000528246479579094
658,-0.00165319442749023,0.0000486093327994334
659,-0.00202465057373047,0.0000456482863708979
660,-0.00194120407104492,0.0000479405163862488
661,-0.00190305709838867,0.0000480577580450298
662,-0.00192451477050781,0.0000507265993832729
663,-0.00189113616943359,0.0000459894545409374
664,-0.00192975997924805,0.0000459189479324474
665,-0.00197839736938477,0.0000350621251452717
666,-0.00193977355957031,0.0000429544006220896
667,-0.00196409225463867,0.0000443125158519323
668,-0.00190973281860352,0.0000462568910840162
669,-0.00195169448852539,0.0000550566267961582
670,-0.00195550918579102,0.0000595273470343257
671,-0.00190925598144531,0.0000418049149368294
672,-0.00187826156616211,0.0000427919840061438
673,-0.00202417373657227,0.0000402694555868481
674,-0.00192880630493164,0.000050453562643531
675,-0.00191640853881836,0.0000529181838951305
676,-0.00195789337158203,0.0000608383298234152
677,-0.00187921524047852,0.0000634910063862045
678,-0.00190019607543945,0.0000495325715551918
679,-0.00192785263061523,0.0000535991267580474
680,-0.00188159942626953,0.0000542788577583914
681,-0.00188875198364258,0.0000640117255287067
682,-0.00195217132568359,0.0000477861258366524
683,-0.00188732147216797,0.0000559588264548515
684,-0.00187110900878906,0.0000559984289500637
685,-0.00185298919677734,0.0000522566535674953
686,-0.00193262100219727,0.0000551051307551698
687,-0.00187444686889648,0.000054409606268295
688,-0.00200462341308594,0.0000528020454933794
689,-0.00182342529296875,0.0000521128696148462
690,-0.00196075439453125,0.0000504265158356136
691,-0.0018620491027832,0.0000567856801063078
692,-0.0019993782043457,0.000046966644678032
693,-0.00192689895629883,0.0000410426348389231
694,-0.00197458267211914,0.0000352730598619593
695,-0.00192022323608398,0.0000409719397368172
696,-0.0019068717956543,0.0000429530772583903
697,-0.00189638137817383,0.0000514033995210998
698,-0.00187969207763672,0.0000316702088057366
699,-0.00195026397705078,0.0000398365983456926
700,-0.00192356109619141,0.000038851256664745
701,-0.00188112258911133,0.0000454323477895834
702,-0.00186538696289062,0.0000362050996260228
703,-0.00192117691040039,0.0000454961125196149
704,-0.00193405151367187,0.0000525354676325211
705,-0.00193643569946289,0.0000558225422383243
706,-0.00185775756835937,0.0000647498509766452
707,-0.0018000602722168,0.0000591739351558249
708,-0.00196504592895508,0.0000611058957722474
709,-0.00189971923828125,0.0000625129695330723
710,-0.00189352035522461,0.0000492194354397723
711,-0.00192785263061523,0.0000462740919790614
712,-0.00194883346557617,0.0000525040802326233
713,-0.0019078254699707,0.000049939444921816
714,-0.00189971923828125,0.0000616154060189142
715,-0.00199556350708008,0.0000588164669546808
716,-0.00202226638793945,0.0000600493057316587
717,-0.00196743011474609,0.0000435125337737966
718,-0.00190973281860352,0.0000479938435539149
719,-0.00187444686889648,0.0000473775571761102
720,-0.00196933746337891,0.0000598245379281294
721,-0.00195884704589844,0.0000478408132979737
722,-0.001983642578125,0.000048179433917388
723,-0.00199651718139648,0.0000382697097839625
724,-0.00199317932128906,0.0000437574418917223
725,-0.00200653076171875,0.000046966644678032
726,-0.00197076797485352,0.000047818232580208
727,-0.00203466415405273,0.000043289881415905
728,-0.00199460983276367,0.0000553716563461331
729,-0.00202465057373047,0.0000753206517230439
730,-0.00204896926879883,0.0000672560175691935
731,-0.00200366973876953,0.0000694907340518386
732,-0.00212955474853516,0.0000575503140160316
733,-0.00206232070922852,0.0000564110651793224
734,-0.00207614898681641,0.0000573663044959985
735,-0.00211477279663086,0.0000496426185982515
736,-0.00219345092773437,0.0000599830062618881
737,-0.00214815139770508,0.0000370531927874657
738,-0.00216341018676758,0.0000393022017719567
739,-0.00214004516601562,0.000066591807245106
740,-0.00217866897583008,0.0000488670853063956
741,-0.00215578079223633,0.0000643889089675535
742,-0.00208187103271484,0.000050191499649575
743,-0.00209188461303711,0.0000484512075403044
744,-0.00215578079223633,0.0000693859510552028
745,-0.00211858749389648,0.0000650476496602537
746,-0.00221538543701172,0.0000477361390907567
747,-0.00211000442504883,0.000046120285491001
748,-0.00220918655395508,0.0000384290517968345
749,-0.00212574005126953,0.0000381380309115502
750,-0.00208759307861328,0.0000527578889640054
751,-0.00211143493652344,0.0000548196850440898
752,-0.00213003158569336,0.0000473079178086262
753,-0.00205564498901367,0.0000561697171120728
754,-0.00198602676391602,0.0000607541814224149
755,-0.00202655792236328,0.0000730370714060584
756,-0.00203037261962891,0.0000551350374429753
757,-0.00205183029174805,0.0000433895613329976
758,-0.00210428237915039,0.0000423634325836969
759,-0.00211954116821289,0.0000480435621729069
760,-0.00204753875732422,0.0000575098033642722
761,-0.00208616256713867,0.000056599184740769
762,-0.00218057632446289,0.0000591403040447504
763,-0.00209236145019531,0.0000633924470247338
764,-0.00200128555297852,0.0000525625106926097
765,-0.00205802917480469,0.0000411691658911462
766,-0.00221157073974609,0.0000348082960372685
767,-0.00214052200317383,0.0000439001056155544
768,-0.00198745727539062,0.0000486537494448217
769,-0.00193309783935547,0.0000602920943088617
770,-0.00201416015625,0.000065932975822415
771,-0.0020298957824707,0.0000563566250358269
772,-0.00208139419555664,0.0000432176012398702
773,-0.00199460983276367,0.000057037378518317
774,-0.00202512741088867,0.0000642156443387315
775,-0.00201511383056641,0.0000504637014592093
776,-0.00205373764038086,0.000056441287014006
777,-0.00197792053222656,0.0000526079117385876
778,-0.00194883346557617,0.0000501835713078418
779,-0.00200319290161133,0.0000446829748793321
780,-0.00201225280761719,0.0000580283589848666
781,-0.0019536018371582,0.000048103865696904
782,-0.00195789337158203,0.0000463771633765505
783,-0.00201797485351562,0.0000642687341411184
784,-0.00198173522949219,0.0000602185109647058
785,-0.00198936462402344,0.0000479298438328428
786,-0.00197792053222656,0.0000658915801342517
787,-0.00199365615844727,0.0000504546892792179
788,-0.00192594528198242,0.0000481168624309681
789,-0.00206470489501953,0.0000774328342593633
790,-0.00199985504150391,0.0000658052554802149
791,-0.0019989013671875,0.0000540984312477503
792,-0.0020442008972168,0.0000524477523399452
793,-0.00203084945678711,0.0000676907254173865
794,-0.00194597244262695,0.000083615268618859
795,-0.00201845169067383,0.0000622304462473887
796,-0.00202703475952148,0.0000394645769439795
797,-0.00199604034423828,0.0000451864537829671
798,-0.00194406509399414,0.0000468879096128268
799,-0.00201320648193359,0.0000574860765654774
800,-0.0020747184753418,0.0000860661350276031
801,-0.00204229354858398,0.0000810833510989837
802,-0.00202751159667969,0.0000584743134317567
803,-0.00204658508300781,0.0000779756337263601
804,-0.00208282470703125,0.0000629370860454831
805,-0.00206279754638672,0.0000477528071532991
806,-0.00204992294311523,0.0000465179026740592
807,-0.00201892852783203,0.0000517055091442055
808,-0.00208234786987305,0.0000624565671159094
809,-0.00203990936279297,0.0000706202109680497
810,-0.00207138061523437,0.0000761447878964964
811,-0.00213241577148437,0.0000736323657839667
812,-0.00212812423706055,0.0000605141861868023
813,-0.00204896926879883,0.0000503915588898579
814,-0.00211143493652344,0.0000622340998769968
815,-0.00214624404907227,0.0000657793359930359
816,-0.00218105316162109,0.0000698236804304512
817,-0.00222635269165039,0.0000672086708420517
818,-0.00215673446655273,0.00005989670723822
819,-0.00213527679443359,0.0000423634325836969
820,-0.00205659866333008,0.0000485145194900518
821,-0.00216436386108398,0.0000591037685995749
822,-0.0022282600402832,0.0000525116582192735
823,-0.00222873687744141,0.0000564906145730931
824,-0.00218343734741211,0.0000442213443446659
825,-0.00222682952880859,0.0000629226335311309
826,-0.00223445892333984,0.0000665388623905655
827,-0.0022730827331543,0.0000617775618029285
828,-0.00226116180419922,0.0000566092270014078
829,-0.00220012664794922,0.0000534547002544687
830,-0.00223064422607422,0.0000659898524933098
831,-0.00231742858886719,0.0000618842048950324
832,-0.0022730827331543,0.0000483866379906577
833,-0.00228977203369141,0.0000463820658251241
834,-0.00231170654296875,0.0000478788199083756
835,-0.00231456756591797,0.0000558530825208524
836,-0.0023188591003418,0.0000625947535759809
837,-0.00236749649047852,0.0000570991342507091
838,-0.00236368179321289,0.0000682360471138716
839,-0.00235080718994141,0.0000625929373137444
840,-0.00229167938232422,0.0000648708870380492
841,-0.00235271453857422,0.0000507546062533648
842,-0.00230646133422852,0.0000612267081185374
843,-0.00229120254516602,0.0000756189167055562
844,-0.00229692459106445,0.0000665730251809205
845,-0.00226449966430664,0.0000510950539821536
846,-0.00229740142822266,0.0000618198733163523
847,-0.00220680236816406,0.0000652709779058031
848,-0.00227594375610352,0.0000653493104185101
849,-0.00214385986328125,0.00007003502642722
850,-0.00225925445556641,0.0000545587983011455
851,-0.00228452682495117,0.0000529063666447046
852,-0.00207185745239258,0.0000524130589329141
853,-0.00209951400756836,0.0000604803604791919
854,-0.00213146209716797,0.0000575503140160316
855,-0.00213050842285156,0.0000690953331512451
856,-0.00217580795288086,0.0000721364951754229
857,-0.00221633911132812,0.0000639050747956365
858,-0.00216341018676758,0.0000597208797072057
859,-0.00216341018676758,0.0000656634373714171
860,-0.00220823287963867,0.0000721853345225507
861,-0.00213766098022461,0.0000607129997566251
862,-0.00210762023925781,0.000071426959403262
863,-0.00215625762939453,0.0000616209410825733
864,-0.00213098526000977,0.000059187382249546
865,-0.0021357536315918,0.0000705477312305428
866,-0.00208711624145508,0.0000760043130243985
867,-0.00211143493652344,0.0000658484319532549
868,-0.00208759307861328,0.000038444580031519
869,-0.00210380554199219,0.0000435399588769667
870,-0.00198125839233398,0.0000630525869027189
871,-0.00211715698242187,0.0000605461153364401
872,-0.00208854675292969,0.0000672526367655334
873,-0.00205421447753906,0.000044275299466337
874,-0.0019688606262207,0.0000590797198006986
875,-0.00202560424804687,0.0000742106312660829
876,-0.00203752517700195,0.0000598492372223319
877,-0.0020442008972168,0.0000674770913032766
878,-0.00204133987426758,0.0000648235520151925
879,-0.00192403793334961,0.000064702427406248
880,-0.00200462341308594,0.0000569815416194521
881,-0.00201606750488281,0.0000742887195364016
882,-0.00206375122070312,0.0000632218462291048
883,-0.00201654434204102,0.0000768477486481359
884,-0.00197601318359375,0.0000681143145558931
885,-0.00201702117919922,0.0000711782286673818
886,-0.00203180313110352,0.0000868864821020289
887,-0.00201272964477539,0.0000795460999289702
888,-0.00203657150268555,0.0000774665954845908
889,-0.00194883346557617,0.0000645106222388025
890,-0.00204038619995117,0.000071765180432189
891,-0.0019989013671875,0.000060375945248964
892,-0.00191640853881836,0.000054460774042601
893,-0.00204277038574219,0.0000639388667749853
894,-0.0019841194152832,0.0000576174396195189
895,-0.00190067291259766,0.0000721065450313658
896,-0.00192117691040039,0.0000680926133265451
897,-0.00194931030273437,0.0000724855219484706
898,-0.00198173522949219,0.0000759279891796375
899,-0.00202083587646484,0.0000648901617776779
900,-0.00198507308959961,0.0000617389042268353
901,-0.00199270248413086,0.0000681893808654551
902,-0.00201559066772461,0.0000743911815110691
903,-0.00201272964477539,0.0000691972704025168
904,-0.00204181671142578,0.0000728032124858319
905,-0.00198602676391602,0.0000729934746169906
906,-0.00209331512451172,0.0000676083796391786
907,-0.0020751953125,0.0000723552270197559
908,-0.00200557708740234,0.0000833074228118586
909,-0.00207614898681641,0.0000767278254909923
910,-0.00211858749389648,0.0000885249179487134
911,-0.00216054916381836,0.0000809542552760525
912,-0.00209569931030273,0.0000691150746754054
913,-0.00220155715942383,0.0000742029711300923
914,-0.00224781036376953,0.0000724682674121048
915,-0.00226116180419922,0.0000796803309443515
916,-0.00232791900634766,0.0000852605640234427
917,-0.00218057632446289,0.0000690476011653822
918,-0.00218868255615234,0.0000767589346705677
919,-0.00221109390258789,0.0000757240828336855
920,-0.00247526168823242,0.0000618915528177483
921,-0.0023646354675293,0.0000584354161258946
922,-0.00235557556152344,0.0000687919203613331
923,-0.002471923828125,0.0000644736033928085
924,-0.00248575210571289,0.0000521946136332389
925,-0.00255155563354492,0.0000704574300975567
926,-0.00258827209472656,0.0000712420885659862
927,-0.00259828567504883,0.0000946494733871422
928,-0.00264739990234375,0.0000618897159188559
929,-0.00271844863891602,0.0000565921540980342
930,-0.00279808044433594,0.0000752330572475184
931,-0.00278329849243164,0.0000696623022515399
932,-0.0029749870300293,0.0000691512528320826
933,-0.00286388397216797,0.0000625366070203972
934,-0.00303506851196289,0.0000699131740160834
935,-0.00309562683105469,0.0000760790659911313
936,-0.0032501220703125,0.0000920406888265399
937,-0.00332784652709961,0.000073077530850017
938,-0.00331783294677734,0.0000829847365974561
939,-0.00346899032592773,0.0000857896176726647
940,-0.00351238250732422,0.000112191585803867
941,-0.00355911254882812,0.0000786116347932773
942,-0.00374937057495117,0.000102403485836381
943,-0.00384092330932617,0.000082455610137234
944,-0.00385379791259766,0.0000856941514678223
945,-0.00396823883056641,0.0000983626180897012
946,-0.00405550003051758,0.0000897594497290145
947,-0.00421524047851563,0.000101837950118395
948,-0.00423383712768555,0.0000970056025799211
949,-0.00438785552978516,0.000101558479042648
950,-0.00455999374389648,0.000090501130030603
951,-0.00470972061157227,0.000114564034676181
952,-0.00488758087158203,0.000101641282545227
953,-0.00500679016113281,0.0000991248001793892
954,-0.00514745712280273,0.000130046353195573
955,-0.00533676147460938,0.000100281019727081
956,-0.00528955459594727,0.000135243661394371
957,-0.00568389892578125,0.000124847587878118
958,-0.00582551956176758,0.000132251626113992
959,-0.00603818893432617,0.000137199897385509
960,-0.005950927734375,0.000105913680191311
961,-0.00588798522949219,0.000140374898783979
962,-0.00605344772338867,0.000171242308366136
963,-0.00604963302612305,0.000177137142381732
964,-0.00617265701293945,0.000128356910692867
965,-0.00584602355957031,0.000107126113282294
966,-0.00584554672241211,0.000166770345026375
967,-0.00590038299560547,0.000160987456100534
968,-0.00595283508300781,0.000147739511803202
969,-0.00581216812133789,0.000156364785254742
970,-0.0056757926940918,0.000145400152485174
971,-0.00553083419799805,0.000139383343067138
972,-0.00542974472045898,0.000140047325014558
973,-0.00519657135009766,0.000118836774534565
974,-0.00529956817626953,0.000112578011481842
975,-0.00544643402099609,0.000135737038675949
976,-0.00515079498291016,0.000128339195295544
977,-0.00504016876220703,0.00018063004437635
978,-0.00470066070556641,0.00016798209016799
979,-0.00457954406738281,0.000180135926371878
980,-0.00468921661376953,0.000141324108526937
981,-0.0042719841003418,0.00017271249876239
982,-0.00425243377685547,0.000182548311065756
983,-0.00420475006103516,0.000151975715005798
984,-0.00414228439331055,0.000116853321326644
985,-0.00406408309936523,0.000180221737839015
986,-0.00370883941650391,0.000146986552584296
987,-0.003814697265625,0.000114409124408484
988,-0.00398635864257812,0.000114176364926644
989,-0.00390863418579102,0.000147023673525855
990,-0.00355625152587891,0.000226167639190741
991,-0.00319671630859375,0.000162393683290354
992,-0.00334405899047852,0.000147437555823049
993,-0.00322818756103516,0.000215656952287332
994,-0.00302982330322266,0.0002313481018075
995,-0.00319814682006836,0.000268177558787823
996,-0.00297212600708008,0.000238891133252885
997,-0.00284099578857422,0.00024396174553405
998,-0.00261259078979492,0.000226107311195503
999,-0.00276374816894531,0.000284725692091936
1000,-0.00262022018432617,0.000224220980562935
1001,-0.00275850296020508,0.000203568702387134
1002,-0.0024871826171875,0.000218788768321669
1003,-0.00258255004882812,0.000169566404402079
1004,-0.00211000442504883,0.000176489021036208
1005,-0.00259304046630859,0.000242930632503688
1006,-0.00212764739990234,0.000268543579131915
1007,-0.00257968902587891,0.000247257424263006
1008,-0.00198602676391602,0.000243226216456043
1009,-0.00181055068969727,0.000281099448042916
1010,-0.00168752670288086,0.000285822413557879
1011,-0.00200462341308594,0.000275735596340788
1012,-0.0020599365234375,0.000266182785406792
1013,-0.00170469284057617,0.000289037273246988
1014,-0.00163745880126953,0.000319280134291999
1015,-0.00140237808227539,0.000315030255463601
1016,-0.00204324722290039,0.000253081518245914
1017,-0.00209379196166992,0.000218235193204582
1018,-0.00176239013671875,0.000311125923219355
1019,-0.00211000442504883,0.000360403101163687
1020,-0.0020899772644043,0.000283175438316807
1021,-0.00160121917724609,0.000327220097564809
1022,-0.00245952606201172,0.000256281231039719
1023,-0.00200128555297852,0.000263773282736575
1024,-0.00190019607543945,0.000283663207440187
1025,-0.00240182876586914,0.000322990216991416
1026,-0.00231361389160156,0.000315220740367914
1027,-0.00225067138671875,0.000288816924829218
1028,-0.00230026245117187,0.000328124949974669
1029,-0.00239896774291992,0.000271380255307501
1030,-0.00243759155273437,0.000333382498843984
1031,-0.00259494781494141,0.000455772519887868
1032,-0.00203275680541992,0.000351966552869853
1033,-0.0023345947265625,0.00043329151193945
1034,-0.00177478790283203,0.000320559431907895
1035,-0.00295019149780273,0.000316596892108863
1036,-0.00221967697143555,0.0004426035277811
1037,-0.00284671783447266,0.000410013415238707
1038,-0.00291061401367187,0.00026279222152686
1039,-0.00276756286621094,0.000295164897086751
1040,-0.00206708908081055,0.000250124612034794
1041,-0.00271987915039062,0.000371419111469668
1042,-0.00333690643310547,0.000331686775595984
1043,-0.00243043899536133,0.000318932418305641
1044,-0.00337505340576172,0.00032130758252436
1045,-0.00267505645751953,0.000447564955147388
1046,-0.00221347808837891,0.000449551997761726
1047,-0.00252819061279297,0.000462939878953815
1048,-0.00362300872802734,0.000463301225528301
1049,-0.00400638580322266,0.000632434931014165
1050,-0.00310897827148437,0.000434230862067131
1051,-0.00279617309570312,0.000560825370098323
1052,-0.00330543518066406,0.00054515480802148
1053,-0.00290727615356445,0.000352513943118054
1054,-0.00323247909545898,0.000392719331772509
1055,-0.00345563888549805,0.000585155163459635
1056,-0.00281381607055664,0.000735376280360313
1057,-0.0045628547668457,0.000761278251288541
1058,-0.00424671173095703,0.000824716022503423
1059,-0.00372838973999023,0.000646408302752468
1060,-0.00479555130004883,0.000654673628017113
1061,-0.00211715698242187,0.00086284708199872
1062,-0.00402021408081055,0.000823974609375
1063,-0.00509977340698242,0.000945675685568004
1064,-0.00361299514770508,0.000688941085292234
1065,-0.00479841232299805,0.000639163882053086
1066,-0.00408267974853516,0.000815203572519808
1067,-0.00360393524169922,0.000944443855312731
1068,-0.00413084030151367,0.000802465795336904
1069,-0.0046849250793457,0.00103377592077358
1070,-0.0040440559387207,0.000992320008703406
1071,-0.00289058685302734,0.00084804761329559
1072,-0.00345039367675781,0.00114568003980112
1073,-0.00424051284790039,0.000817467461809375
1074,-0.00370264053344727,0.00063400911220043
1075,-0.00580930709838867,0.000649843504181742
1076,-0.00338077545166016,0.00108619108772585
1077,-0.00320577621459961,0.00120026647358339
1078,-0.00363063812255859,0.00125598002309586
1079,-0.00610494613647461,0.00133660372914194
1080,-0.00176239013671875,0.00120310012215742
1081,-0.0047602653503418,0.000941171707915802
1082,-0.00354242324829102,0.00123372287213388
1083,-0.00548601150512695,0.00192200181899297
1084,-0.00289392471313477,0.0026156697925711
1085,-0.00528383255004883,0.00192563257939606
1086,-0.00356578826904297,0.0014708317121649
1087,-0.00488185882568359,0.00147300671017155
1088,-0.00478124618530273,0.0015830947692069
1089,-0.00525522232055664,0.00171639335064909
1090,-0.0070948600769043,0.00150289389981003
1091,-0.00765609741210938,0.00160594677363663
1092,-0.00580596923828125,0.00121810159032209
1093,-0.00402975082397461,0.00201889406552316
1094,-0.00664329528808594,0.00264949880282369
1095,-0.00725936889648438,0.00182726786359261
1096,-0.00454330444335938,0.00132481530770284
1097,-0.00780963897705078,0.00185166521230132
1098,-0.00247526168823242,0.00171984897504948
1099,-0.010096549987793,0.00260317803531489
1100,-0.00555133819580078,0.00315661531166074
