Wavelength (nm),Absorbance (AU),Std.Dev.
190,0.258709907531738,0.0000890294688625686
191,0.257290840148926,0.0000806785362219308
192,0.255109310150146,0.000112061804798645
193,0.253070831298828,0.000103656984360656
194,0.251055240631104,0.0000779231288046849
195,0.249200820922852,0.0000658018001384876
196,0.24746561050415,0.0000538541077088475
197,0.245589733123779,0.0000330775169296734
198,0.243622779846191,0.0000425709041496687
199,0.24140453338623,0.0000473031113145515
200,0.239025592803955,0.0000397473161408218
201,0.236392498016357,0.0000408190432720808
202,0.233533382415771,0.0000348760014448843
203,0.230161190032959,0.0000386032002411062
204,0.226451396942139,0.0000384815267984901
205,0.222214698791504,0.0000377763686780583
206,0.217095851898193,0.0000502175411020978
207,0.211519718170166,0.0000767130071619001
208,0.205224514007568,0.0000633368278006165
209,0.198404788970947,0.0000475356664679779
210,0.190998554229736,0.0000445963848209914
211,0.182986259460449,0.0000427474605809327
212,0.174496650695801,0.0000316953268089644
213,0.165536880493164,0.0000406662708508844
214,0.156509399414062,0.000044726207044076
215,0.14707612991333,0.000047419531453778
216,0.137784481048584,0.0000459845102357528
217,0.128357410430908,0.0000331221675621266
218,0.11933708190918,0.0000289322689422081
219,0.110357284545898,0.0000384223949179908
220,0.101811408996582,0.0000377741115083334
221,0.0936374664306641,0.0000282161110815165
222,0.086026668548584,0.0000328343156181773
223,0.0788259506225586,0.0000379557585566185
224,0.0722389221191406,0.0000400280582520511
225,0.0661497116088867,0.0000313019170483814
226,0.0606122016906738,0.0000359806734866776
227,0.0556612014770508,0.0000280245802232675
228,0.0511550903320313,0.0000330964149334602
229,0.0472540855407715,0.0000346888791093694
230,0.0437164306640625,0.0000315271949624461
231,0.0406861305236816,0.0000329742462532434
232,0.0379786491394043,0.0000421110928165089
233,0.0355591773986816,0.0000437535445466341
234,0.0335245132446289,0.0000387553048828045
235,0.0317134857177734,0.0000280848585560364
236,0.03021240234375,0.0000336584215003601
237,0.0288949012756348,0.0000296699444924978
238,0.0277018547058105,0.000035586718432583
239,0.0266690254211426,0.000031645968992744
240,0.0258312225341797,0.0000301625416513137
241,0.0250658988952637,0.0000253632996916364
242,0.0244593620300293,0.0000210757843468059
243,0.0238738059997559,0.0000299293671185684
244,0.0232992172241211,0.0000302721188086417
245,0.0228419303894043,0.0000287435326888052
246,0.0224089622497559,0.0000288240075296543
247,0.0219969749450684,0.0000344050483847569
248,0.0216541290283203,0.0000451814216036784
249,0.0213518142700195,0.0000485262348604117
250,0.0210442543029785,0.0000403977048295296
251,0.0208044052124023,0.0000376822053911788
252,0.0205469131469727,0.000036694780364172
253,0.0203380584716797,0.0000375348389694844
254,0.0201435089111328,0.000041879633343073
255,0.0199217796325684,0.0000454673669474038
256,0.0197911262512207,0.0000396735966135637
257,0.019556999206543,0.0000441647492327282
258,0.0194168090820312,0.000053221307404404
259,0.0193204879760742,0.0000459226615053611
260,0.0191330909729004,0.0000530490714429657
261,0.0190029144287109,0.0000412615709625804
262,0.018892765045166,0.000031914266075659
263,0.0187478065490723,0.0000403765928840953
264,0.0185012817382812,0.0000559069962480582
265,0.0183882713317871,0.0000569565967591667
266,0.0182299613952637,0.0000506783913612994
267,0.0179729461669922,0.0000383357503021309
268,0.0178442001342773,0.0000377055798142353
269,0.0176916122436523,0.0000491338986751359
270,0.0174193382263184,0.0000538456629861159
271,0.0173230171203613,0.0000512394753129167
272,0.0170941352844238,0.0000417096251989277
273,0.0168728828430176,0.0000479772592313229
274,0.0167236328125,0.0000412560600512116
275,0.0166234970092773,0.0000501132940971804
276,0.016298770904541,0.0000523316561354216
277,0.0161533355712891,0.000048663095151678
278,0.0160317420959473,0.0000548155372224182
279,0.0158381462097168,0.0000493935171607153
280,0.0156116485595703,0.0000435843248369237
281,0.0153489112854004,0.000050934601567179
282,0.0151925086975098,0.0000384601019966919
283,0.0150327682495117,0.0000404813404217083
284,0.0147967338562012,0.0000427913198179632
285,0.0146231651306152,0.0000405584972405651
286,0.0143980979919434,0.0000464200422465933
287,0.0141811370849609,0.0000510382847744258
288,0.0139760971069336,0.000037002532752506
289,0.0137529373168945,0.0000400834034745147
290,0.0135741233825684,0.0000348017632551461
291,0.0134100914001465,0.0000379160507754789
292,0.0131397247314453,0.0000432977592264247
293,0.0129170417785645,0.000053652126995221
294,0.012751579284668,0.0000348760014448843
295,0.0125279426574707,0.0000350840047886774
296,0.0123715400695801,0.000031593835398631
297,0.01220703125,0.00003207062239601
298,0.0120663642883301,0.0000319302922111191
299,0.0118408203125,0.0000378237381268538
300,0.0116934776306152,0.0000373321167847376
301,0.011530876159668,0.0000497067001942784
302,0.0114235877990723,0.0000491697497551888
303,0.0112371444702148,0.0000393751730082363
304,0.0109953880310059,0.0000521139603784983
305,0.0108928680419922,0.0000434314633817127
306,0.0107460021972656,0.0000439285827621005
307,0.0106372833251953,0.0000575177101221791
308,0.0104503631591797,0.0000447134960405954
309,0.0103335380554199,0.0000543803459240071
310,0.0101809501647949,0.0000487914170924625
311,0.0100069046020508,0.0000419846926733263
312,0.00981807708740234,0.0000402553373465422
313,0.00970029830932617,0.0000450440783324255
314,0.00953912734985352,0.0000378425190937434
315,0.00941085815429688,0.0000453346517835019
316,0.00934362411499023,0.0000643500534356588
317,0.00912380218505859,0.0000458929445081775
318,0.00901174545288086,0.0000367458646873309
319,0.00885677337646484,0.0000507378039864584
320,0.00880575180053711,0.0000405767128696165
321,0.00856828689575195,0.0000432530993287986
322,0.00846052169799805,0.000053763257426165
323,0.00829935073852539,0.0000520866844345908
324,0.00824403762817383,0.0000437808186765214
325,0.0080876350402832,0.0000443932577302479
326,0.00793838500976563,0.0000423325598447086
327,0.00781583786010742,0.0000515579832771495
328,0.00775480270385742,0.0000472128989494156
329,0.00756406784057617,0.0000562778963011812
330,0.00751590728759766,0.000052004770767301
331,0.00732612609863281,0.000047238175777647
332,0.00721025466918945,0.0000470524970409728
333,0.00702571868896484,0.0000459535962757978
334,0.00700807571411133,0.0000380582074721373
335,0.00690746307373047,0.0000418504411200075
336,0.00680255889892578,0.0000431102723217346
337,0.00665950775146484,0.000038539830498238
338,0.00651931762695313,0.000052371830661833
339,0.00645542144775391,0.0000452995300292969
340,0.00631093978881836,0.0000442123454228054
341,0.00628757476806641,0.000039599022117904
342,0.00619983673095703,0.0000456021889343461
343,0.0060114860534668,0.00003954515515559
344,0.00596427917480469,0.0000356999480990964
345,0.00588798522949219,0.0000521314094930804
346,0.00578498840332031,0.0000483102172587441
347,0.00562381744384766,0.0000394025925459893
348,0.00561904907226563,0.0000341554898263861
349,0.00551891326904297,0.0000451877117402281
350,0.0054478645324707,0.0000499690305777474
351,0.00534820556640625,0.0000514442989584026
352,0.00519418716430664,0.0000635536463987203
353,0.00525379180908203,0.0000633404176114733
354,0.00515556335449219,0.0000423594069807436
355,0.00491476058959961,0.0000655195771687228
356,0.00485801696777344,0.0000708018885517677
357,0.0048675537109375,0.0000518262986138399
358,0.00472545623779297,0.0000456221286768531
359,0.0046839714050293,0.0000549987789978927
360,0.00465059280395508,0.0000523240520794401
361,0.00451183319091797,0.0000630814290733177
362,0.00442790985107422,0.0000581663157729222
363,0.00428867340087891,0.0000657326551604888
364,0.00426292419433594,0.0000744217398353579
365,0.00409030914306641,0.0000664978438749707
366,0.00422239303588867,0.0000680942828974198
367,0.00407552719116211,0.0000538942020717402
368,0.00393867492675781,0.000081168834041417
369,0.0039372444152832,0.0000676319172350711
370,0.00402021408081055,0.000073593756182558
371,0.00375032424926758,0.0000841735772109428
372,0.00368928909301758,0.0000664773251260508
373,0.0036921501159668,0.0000875668306532077
374,0.00366020202636719,0.0000579381675357977
375,0.00371599197387695,0.0000549543188224275
376,0.00358867645263672,0.0000859339410887531
377,0.00361728668212891,0.0000971320919616245
378,0.00345706939697266,0.0000700707296060285
379,0.00332832336425781,0.0000756414646133554
380,0.00344181060791016,0.0000667912532611585
381,0.00322675704956055,0.0000529364417296829
382,0.00325250625610352,0.0000638855028485025
383,0.00325775146484375,0.0000707038727955895
384,0.00318002700805664,0.0000641660542259382
385,0.00313138961791992,0.0000573147553075654
386,0.00308847427368164,0.0000586461243526974
387,0.00296974182128906,0.0000647919761213408
388,0.00291824340820312,0.0000793615197043097
389,0.00272369384765625,0.0000729249127180949
390,0.00284957885742187,0.0000661979821959659
391,0.00295209884643555,0.0000501325734579003
392,0.00277280807495117,0.0000597541840570415
393,0.00256538391113281,0.0000485402895724829
394,0.00268125534057617,0.0000460129327351524
395,0.002655029296875,0.000057392061727284
396,0.00265741348266602,0.000080186658290885
397,0.00259160995483398,0.000058156542385342
398,0.00248432159423828,0.0000492990589850629
399,0.00227689743041992,0.0000561201074963505
400,0.00243902206420898,0.0000626165446135691
401,0.00225830078125,0.0000536807253651607
402,0.00222873687744141,0.0000651611541888794
403,0.00228500366210937,0.0000625947535759809
404,0.00229740142822266,0.0000713058912731729
405,0.00235128402709961,0.0000669595512683971
406,0.00205039978027344,0.0000744263225018408
407,0.00222921371459961,0.000100117636349643
408,0.00213718414306641,0.0000703718597960406
409,0.00210380554199219,0.0000627108849440521
410,0.00197601318359375,0.0000492240548142959
411,0.00201749801635742,0.0000650913286714074
412,0.00192928314208984,0.0000595865222083299
413,0.00193929672241211,0.0000433987308631717
414,0.00188922882080078,0.0000560136532234879
415,0.00185251235961914,0.0000414457630470807
416,0.00183486938476562,0.0000477647093511244
417,0.00183343887329102,0.0000712373010593291
418,0.00170040130615234,0.0000858518786234047
419,0.00165557861328125,0.0000551731707157926
420,0.00167942047119141,0.0000683359389066478
421,0.00177288055419922,0.0000777317698964101
422,0.00166082382202148,0.0000744629736806063
423,0.00150966644287109,0.000057785896182021
424,0.00158786773681641,0.0000451612872793258
425,0.00148916244506836,0.0000540784634910317
426,0.0015106201171875,0.0000576075731126706
427,0.00154590606689453,0.0000538118708428473
428,0.00140714645385742,0.000049836897412501
429,0.00162982940673828,0.0000478122885135846
430,0.00136661529541016,0.0000529439578315049
431,0.00132226943969727,0.0000592536126270514
432,0.0013117790222168,0.0000689306005757764
433,0.00140666961669922,0.0000697731880088265
434,0.00141716003417969,0.0000802475995647423
435,0.00118446350097656,0.0000622468858918108
436,0.0013422966003418,0.000064325314967872
437,0.00132894515991211,0.0000471225138800829
438,0.00135231018066406,0.0000528708990456858
439,0.00123405456542969,0.0000651367237721603
440,0.001190185546875,0.0000649497020816746
441,0.00118589401245117,0.0000540889737555453
442,0.00114774703979492,0.0000528332558771352
443,0.00123500823974609,0.0000486759425687495
444,0.00113868713378906,0.0000485402895724829
445,0.00115537643432617,0.000047034372274167
446,0.00114774703979492,0.0000411028375171602
447,0.001129150390625,0.0000419609925908996
448,0.00113725662231445,0.0000442765833107247
449,0.00112676620483398,0.0000495279809554085
450,0.000947952270507813,0.0000649041761748561
451,0.000937461853027344,0.0000735659447224041
452,0.00100469589233398,0.0000733818148829945
453,0.000990390777587891,0.0000572691154238557
454,0.00100326538085937,0.0000578380082641039
455,0.00102472305297852,0.0000593992509101786
456,0.00107812881469727,0.000047028329132942
457,0.00102996826171875,0.0000549087874240295
458,0.00095367431640625,0.0000618327449866003
459,0.00100088119506836,0.000074479766109921
460,0.000975608825683594,0.0000568367090343883
461,0.000913619995117188,0.0000766329386709644
462,0.000845909118652344,0.0000783015399486291
463,0.00096893310546875,0.0000649707032792751
464,0.0008697509765625,0.0000462298481754879
465,0.000824928283691406,0.0000496575020533842
466,0.000758647918701172,0.000066456800041902
467,0.000823497772216797,0.000062835848638112
468,0.000765323638916016,0.0000526694648467701
469,0.000714778900146484,0.0000697503729987076
470,0.000814914703369141,0.0000568377091436437
471,0.000715255737304688,0.0000589545079092791
472,0.000761508941650391,0.000064558186706834
473,0.000713348388671875,0.0000685667958062772
474,0.000803947448730469,0.0000748922814836993
475,0.000921249389648438,0.0000799125587658074
476,0.000756740570068359,0.0000600616104324934
477,0.000787258148193359,0.0000486490759181364
478,0.000773906707763672,0.0000521597518544327
479,0.000758171081542969,0.0000425929303164585
480,0.000685691833496094,0.0000607990750630168
481,0.000668048858642578,0.0000695496051130365
482,0.000700950622558594,0.0000635250186286197
483,0.000662803649902344,0.0000666941617587023
484,0.000608921051025391,0.000051958842706273
485,0.00182342529296875,0.0000695316220215626
486,-0.0000810623168945313,0.0000621884140786203
487,0.000580787658691406,0.000075240612512031
488,0.000566959381103516,0.0000721853345225507
489,0.000658512115478516,0.0000665713174577763
490,0.000616073608398438,0.0000584529231166881
491,0.000622749328613281,0.0000698952844659301
492,0.00058746337890625,0.000082385263158261
493,0.00058746337890625,0.0000852298901973972
494,0.000589847564697266,0.0000693449771933694
495,0.000689983367919922,0.0000753613937319438
496,0.000658035278320313,0.0000753840186667751
497,0.000535964965820313,0.000104665484677877
498,0.000645160675048828,0.0000839802159136196
499,0.000604629516601563,0.0000766344221810489
500,0.000467300415039063,0.0000575196866418313
501,0.000451087951660156,0.0000529750846073708
502,0.000504493713378906,0.0000582922455620075
503,0.000501632690429688,0.0000658553375619942
504,0.000626087188720703,0.0000689174049593691
505,0.000534534454345703,0.0000501609119978376
506,0.000470161437988281,0.0000504997340960454
507,0.000471591949462891,0.0000523370869275757
508,0.000523567199707031,0.0000580146432441711
509,0.000467777252197266,0.000060119314241312
510,0.000515937805175781,0.0000676756081941864
511,0.000452995300292969,0.0000725654666462623
512,0.000543117523193359,0.0000633888601603846
513,0.000518798828125,0.0000662889406433374
514,0.000444889068603516,0.0000575424117381438
515,0.00040435791015625,0.0000583224672371699
516,0.000433921813964844,0.0000769586219857484
517,0.000360965728759766,0.0000696949340231682
518,0.000423431396484375,0.000076751528866748
519,0.000319004058837891,0.0000560055341260075
520,0.000309944152832031,0.0000680274681014669
521,0.000462055206298828,0.0000795546746329992
522,0.000414371490478516,0.0000686181759527201
523,0.000340938568115234,0.0000791463502535717
524,0.000400543212890625,0.0000653092855391911
525,0.000329494476318359,0.0000731257416993081
526,0.000332832336425781,0.0000663369438135969
527,0.000311851501464844,0.0000791664574799027
528,0.000327110290527344,0.0000799552265881469
529,0.000439643859863281,0.0000635196494853376
530,0.000343799591064453,0.0000687472851664924
531,0.000376701354980469,0.0000612025647277286
532,0.000297069549560547,0.0000843894003329652
533,0.000308036804199219,0.0000789680341828647
534,0.000359058380126953,0.00005898920858075
535,0.000308513641357422,0.0000605395430645909
536,0.000337600708007812,0.0000526813352380147
537,0.000272274017333984,0.000076395206009781
538,0.000361442565917969,0.0000626637325324994
539,0.000269412994384766,0.0000614602218523365
540,0.000268936157226562,0.0000495394566572598
541,0.000343799591064453,0.0000558429042824953
542,0.000185012817382812,0.0000510015180859411
543,0.000297069549560547,0.0000640986919933567
544,0.000274181365966797,0.0000600521455017836
545,0.000268459320068359,0.0000436286456811694
546,0.000256061553955078,0.0000384615799523845
547,0.000304698944091797,0.0000479594839503485
548,0.000179767608642578,0.0000463195207389103
549,0.000219345092773437,0.0000589766801379396
550,0.000239849090576172,0.0000703831674967935
551,0.000235557556152344,0.0000640880493790109
552,0.0002899169921875,0.0000713505192214743
553,0.000219821929931641,0.0000624875037778484
554,0.000250339508056641,0.0000587671571228969
555,0.000285148620605469,0.0000657655080895842
556,0.000239372253417969,0.0000620273323799672
557,0.000213146209716797,0.0000469206309897799
558,0.00019073486328125,0.0000525862970814697
559,0.000210762023925781,0.0000644436201805162
560,0.000216007232666016,0.0000692186253037417
561,0.000117778778076172,0.0000489890716823999
562,0.000239372253417969,0.000039818044136618
563,0.000155925750732422,0.0000707713736101223
564,0.000210285186767578,0.0000832814901146729
565,0.00012969970703125,0.0000688464351894099
566,0.000101089477539062,0.0000555295245749808
567,0.000189304351806641,0.0000591777774943995
568,0.000143051147460937,0.0000506099244602085
569,0.000161647796630859,0.0000347445490163131
570,0.000207424163818359,0.0000328620034617129
571,0.000208854675292969,0.0000512793969982193
572,0.00000905990600585938,0.0000497227076890628
573,0.000204086303710937,0.0000407430774609893
574,0.0000920295715332031,0.0000430581577585957
575,0.000124931335449219,0.0000387729016016572
576,0.000215530395507812,0.0000492967528660587
577,0.000103473663330078,0.0000381492077649493
578,0.0000166893005371094,0.0000355883157179103
579,0.0000452995300292969,0.0000439272887468483
580,0.000147819519042969,0.0000390220643283172
581,0.000212669372558594,0.0000446982380650477
582,-0.0000658035278320313,0.0000464934568777028
583,-0.0000443458557128906,0.0000547678146948289
584,0.000234127044677734,0.0000397330123703353
585,0.0000967979431152344,0.000036194107684348
586,0.0000104904174804687,0.0000441390001929737
587,0.00011444091796875,0.000040284979936399
588,-0.0000166893005371094,0.0000533514513020602
589,0.0000739097595214844,0.0000525073280751069
590,0.0000762939453125,0.0000338898403372253
591,0.0000462532043457031,0.000035436252144578
592,0.000288486480712891,0.0000429716006415091
593,0.000103473663330078,0.000057545375219519
594,0.0000882148742675781,0.0000486490759181364
595,0.0000710487365722656,0.0000502967147334833
596,-0.0000171661376953125,0.000039597586616567
597,0.0000796318054199219,0.0000392971393385266
598,0.000030517578125,0.0000422761253643416
599,0.000107765197753906,0.0000370846285665421
600,0.0000276565551757812,0.00002781743088339
601,0.00002288818359375,0.0000385479417406479
602,0.0000414848327636719,0.0000469424325696707
603,-0.0000262260437011719,0.0000472610336399511
604,-0.0000472068786621094,0.0000452920003957524
605,0.000140666961669922,0.0000486432333783435
606,-0.0000195503234863281,0.0000454661167276483
607,-0.00000476837158203125,0.0000380126256320415
608,-0.00006103515625,0.0000350377984059625
609,0.00000715255737304688,0.0000303354266153885
610,0.0000109672546386719,0.0000342527103349075
611,-0.000111579895019531,0.0000384364469766965
612,-0.0000247955322265625,0.000046709357763895
613,-0.0000262260437011719,0.0000491431530705987
614,-0.000003814697265625,0.0000499371683761069
615,0.000011444091796875,0.0000617941219323783
616,-0.000133514404296875,0.0000538836538160911
617,-0.0000057220458984375,0.0000454448577294602
618,-0.000135898590087891,0.0000398751064246169
619,-0.0000772476196289063,0.00004614492897953
620,-0.0000338554382324219,0.0000530887030728439
621,-0.000100612640380859,0.0000534940313707127
622,-0.0000181198120117187,0.0000439117575894695
623,-0.0000658035278320313,0.0000529342940760021
624,-0.0000786781311035156,0.0000476682160935559
