Wavelength (nm),Absorbance (AU),Std.Dev.
190,0.248026371002197,0.0000651279964024189
191,0.247177600860596,0.0000660931392250011
192,0.245684146881104,0.0000577937651677158
193,0.244290828704834,0.0000491281137927145
194,0.24273157119751,0.0000584684804855487
195,0.2411789894104,0.0000448809914189915
196,0.239630222320557,0.0000481829732697467
197,0.237973213195801,0.0000371290532361427
198,0.236256122589111,0.0000380604477935932
199,0.234209537506104,0.0000355563563780547
200,0.231862545013428,0.0000360777023253253
201,0.229308605194092,0.0000293405036926346
202,0.226542472839355,0.0000370002283755614
203,0.223312854766846,0.0000465386715048303
204,0.219779014587402,0.0000516549134286984
205,0.215705871582031,0.0000370876940452468
206,0.210757255554199,0.0000397966246847623
207,0.205484390258789,0.0000466143382380706
208,0.199466228485107,0.0000621573285552991
209,0.192858219146729,0.0000550246114225451
210,0.185727596282959,0.0000567916858894174
211,0.177916049957275,0.0000481263123966763
212,0.169690132141113,0.0000435673667163865
213,0.161067962646484,0.0000427514496436268
214,0.152306079864502,0.0000374711794487553
215,0.143201351165771,0.0000314522816093625
216,0.134155750274658,0.000032036041071454
217,0.12502908706665,0.0000363226616832984
218,0.116256237030029,0.0000285022406250673
219,0.107489109039307,0.0000240194146416554
220,0.0992155075073242,0.0000330259219568687
221,0.0912609100341797,0.0000270176750165714
222,0.0838227272033691,0.0000235044929302504
223,0.0768604278564453,0.0000314992361211412
224,0.070465087890625,0.0000313191640351735
225,0.0645480155944824,0.0000378094583527781
226,0.0591392517089844,0.000029088043759303
227,0.0543556213378906,0.0000329518282812829
228,0.0500445365905762,0.0000318955587402366
229,0.0462789535522461,0.0000402969719283807
230,0.0428171157836914,0.0000266496092888233
231,0.0399060249328613,0.0000232081842334894
232,0.0372753143310547,0.0000330981323987546
233,0.0349626541137695,0.000039901470134224
234,0.032991886138916,0.000046916996408188
235,0.03125,0.0000288461849642884
236,0.0297713279724121,0.0000326642154661239
237,0.0285077095031738,0.0000278434726306388
238,0.0273261070251465,0.000028767254187445
239,0.0263338088989258,0.0000325561420945208
240,0.0255756378173828,0.0000324433288527177
241,0.0247516632080078,0.0000409407119130658
242,0.0241360664367676,0.0000250543783495002
243,0.0236015319824219,0.0000204363110473753
244,0.0230040550231934,0.000027624164720348
245,0.0225405693054199,0.0000287504534810225
246,0.0221076011657715,0.0000285485715864431
247,0.0216703414916992,0.0000301837356169113
248,0.0213127136230469,0.0000276452485353915
249,0.0209684371948242,0.0000410827797600784
250,0.0206236839294434,0.000042078008634873
251,0.020392894744873,0.000034330619666123
252,0.0201473236083984,0.0000337343333355408
253,0.0198612213134766,0.0000320369282383744
254,0.0196719169616699,0.0000245808283176332
255,0.0194482803344727,0.0000209686395574045
256,0.0192232131958008,0.0000310631137390027
257,0.0189871788024902,0.0000370209626043535
258,0.0189700126647949,0.0000450024146815798
259,0.0187897682189941,0.0000424746563000141
260,0.0185604095458984,0.0000401103388668988
261,0.018470287322998,0.0000386965913621635
262,0.0183315277099609,0.0000400876576344129
263,0.0182056427001953,0.0000436143115130582
264,0.0180082321166992,0.0000310301574614636
265,0.0178332328796387,0.0000376610805396617
266,0.0176677703857422,0.0000442226297554458
267,0.0175342559814453,0.0000393368980504172
268,0.0173845291137695,0.0000364179989683724
269,0.0171570777893066,0.0000510160050960574
270,0.0169529914855957,0.0000509647248734432
271,0.0168309211730957,0.0000524184812913703
272,0.0166420936584473,0.0000485859393081129
273,0.0165047645568848,0.0000421717920641049
274,0.0163116455078125,0.0000440513408770978
275,0.0162239074707031,0.0000503068851601935
276,0.0159244537353516,0.000059208507226443
277,0.0157947540283203,0.0000439828970245369
278,0.0156879425048828,0.0000446740689461232
279,0.0154733657836914,0.0000370086770562144
280,0.0153155326843262,0.0000396843409865741
281,0.0150628089904785,0.0000465691970767969
282,0.0148434638977051,0.0000455310826343243
283,0.0146312713623047,0.0000447833619131819
284,0.0144491195678711,0.000043354174978328
285,0.0142717361450195,0.0000380813511049297
286,0.0140423774719238,0.0000366513802539361
287,0.013824462890625,0.0000386995291537986
288,0.0136814117431641,0.0000338713850154919
289,0.0134520530700684,0.0000357707332683688
290,0.013214111328125,0.0000304835658974973
291,0.0130834579467773,0.0000328265242044347
292,0.0128450393676758,0.0000395501858429479
293,0.0125718116760254,0.0000458284915753195
294,0.0124373435974121,0.0000420894897664141
295,0.0121827125549316,0.0000325587610073726
296,0.012059211730957,0.0000251336609709003
297,0.0118517875671387,0.0000412870493593077
298,0.0117373466491699,0.0000424110398718606
299,0.0114889144897461,0.0000523055804840238
300,0.0112943649291992,0.0000287934239729297
301,0.0111689567565918,0.0000345920628242791
302,0.0110130310058594,0.0000458446133036316
303,0.0108280181884766,0.0000547169340460406
304,0.0106291770935059,0.0000563253485871097
305,0.0105113983154297,0.0000508228782443017
306,0.0103411674499512,0.0000485999767541538
307,0.0102262496948242,0.0000524520874023438
308,0.0100669860839844,0.0000466106797725594
309,0.00989961624145508,0.0000556787785231568
310,0.00974702835083008,0.0000436090979201266
311,0.00960445404052734,0.0000456794069526142
312,0.00945806503295898,0.0000416953129552825
313,0.00924968719482422,0.0000420726046653349
314,0.00912237167358398,0.0000369963874283611
315,0.00901889801025391,0.0000492055747142258
316,0.00895357131958008,0.0000731894556597267
317,0.00871133804321289,0.0000531122538063153
318,0.00858163833618164,0.0000461030272112725
319,0.00840377807617188,0.0000482890332115695
320,0.00829553604125977,0.0000567946885428154
321,0.00811767578125,0.0000398151888754809
322,0.00795412063598633,0.0000498460212896267
323,0.00793170928955078,0.000050966955521212
324,0.0076603889465332,0.0000437743263774308
325,0.00755786895751953,0.0000390751976836991
326,0.00743293762207031,0.0000417817931237313
327,0.00734663009643555,0.0000405521899241357
328,0.0072169303894043,0.0000455809934003476
329,0.00705623626708984,0.0000559517153476115
330,0.00697088241577148,0.00003947465821551
331,0.00681304931640625,0.0000445670589318429
332,0.00662088394165039,0.0000366397464952434
333,0.00650262832641602,0.0000454148280845096
334,0.00639581680297852,0.0000380611945381079
335,0.00631904602050781,0.0000410668649178546
336,0.00620269775390625,0.0000336423737708496
337,0.00610065460205078,0.0000385014633105308
338,0.00602960586547852,0.0000451386254293017
339,0.00592565536499023,0.0000417668251297526
340,0.00572395324707031,0.0000352238740554593
341,0.00571632385253906,0.0000394444066711514
342,0.00560474395751953,0.000040892782933511
343,0.00545167922973633,0.0000433528638179043
344,0.00541543960571289,0.0000414546769255285
345,0.00537824630737305,0.0000593025179742013
346,0.00519180297851563,0.0000497009819824043
347,0.00516748428344727,0.0000405830163747478
348,0.00505161285400391,0.0000358334479034155
349,0.00501251220703125,0.0000465020143682277
350,0.00490140914916992,0.0000455972026362683
351,0.0047459602355957,0.0000428079214309073
352,0.00460720062255859,0.0000470307464826124
353,0.00462198257446289,0.0000494602201177242
354,0.00452232360839844,0.0000421920057411819
355,0.00436687469482422,0.0000648375808098198
356,0.00432109832763672,0.0000636680287569981
357,0.00430679321289063,0.000049251761963062
358,0.00418758392333984,0.0000535641178736328
359,0.00409555435180664,0.0000468151135595901
360,0.00414085388183594,0.0000444393300811589
361,0.00397586822509766,0.0000523783425463047
362,0.00384235382080078,0.0000364655741406999
363,0.00379848480224609,0.0000517406769830915
364,0.00376605987548828,0.0000833237971989941
365,0.00368595123291016,0.0000700901964016828
366,0.00383138656616211,0.0000776337169983104
367,0.00341320037841797,0.00005224795065236
368,0.00345373153686523,0.0000732500101918723
369,0.00345659255981445,0.0000590566237404725
370,0.0033564567565918,0.0000568597070967422
371,0.00329732894897461,0.00006787186946357
372,0.00330734252929687,0.000059842588415199
373,0.00320243835449219,0.0000616080251604762
374,0.00321722030639648,0.0000531550465891558
375,0.00327730178833008,0.0000626601039542206
376,0.00315284729003906,0.0000946230447174661
377,0.00319385528564453,0.0000847134460657769
378,0.00310325622558594,0.0000768714150454781
379,0.00297737121582031,0.0000825231419251609
380,0.00298595428466797,0.0000882805760034008
381,0.00291204452514648,0.0000591451096600059
382,0.00299310684204102,0.0000658000723995804
383,0.00290203094482422,0.0000746200639099787
384,0.00287342071533203,0.0000605977298123304
385,0.00273275375366211,0.0000589564362601802
386,0.0026702880859375,0.0000521248667596273
387,0.00272655487060547,0.0000642191850243317
388,0.00263118743896484,0.0000808896301031838
389,0.00229549407958984,0.0000684755426045704
390,0.00246381759643555,0.0000500372384044438
391,0.00260019302368164,0.000040561300177489
392,0.00248050689697266,0.0000422653673960106
393,0.00226926803588867,0.0000456545121843187
394,0.00224208831787109,0.0000442932699014413
395,0.00220155715942383,0.0000411035289893816
396,0.0021820068359375,0.0000340162407436596
397,0.00230264663696289,0.0000597161204266815
398,0.00211906433105469,0.0000459573070489578
399,0.00184011459350586,0.000049830053408338
400,0.00211477279663086,0.0000592200267649079
401,0.00188922882080078,0.0000607335940800298
402,0.00179433822631836,0.0000708372052198327
403,0.00198173522949219,0.0000760955017889546
404,0.00186681747436523,0.0000523479468216456
405,0.0018620491027832,0.000059578890004615
406,0.00165271759033203,0.0000683592259882257
407,0.00164556503295898,0.0000798698681496052
408,0.00183296203613281,0.0000745697700589165
409,0.00160121917724609,0.0000664687737778985
410,0.00142621994018555,0.0000531774990149732
411,0.00167608261108398,0.000068473882329797
412,0.00163698196411133,0.0000666276492107718
413,0.00149202346801758,0.0000450869642502156
414,0.00139474868774414,0.0000427062184482427
415,0.00142621994018555,0.0000487342972334913
416,0.00137805938720703,0.0000626728030590769
417,0.00129604339599609,0.0000515248972291569
418,0.00138521194458008,0.0000617499517180621
419,0.00128650665283203,0.0000604728410858232
420,0.0012965202331543,0.0000691709783966653
421,0.00146675109863281,0.0000553264684003463
422,0.00106525421142578,0.0000598397387002796
423,0.00102424621582031,0.0000706540094004308
424,0.00102853775024414,0.0000612619774971882
425,0.00111579895019531,0.0000701112793308412
426,0.00104570388793945,0.0000566784701054969
427,0.00115728378295898,0.0000572711005229194
428,0.000957965850830078,0.0000511206351555493
429,0.00131940841674805,0.0000498893369192189
430,0.000929832458496094,0.0000415519193838044
431,0.000790119171142578,0.0000576519590961935
432,0.000830650329589844,0.0000639761950388863
433,0.00104284286499023,0.0000567826769765459
434,0.000840187072753906,0.0000809008729720109
435,0.000738620758056641,0.0000606258646415855
436,0.00104427337646484,0.0000692777275988159
437,0.000879287719726563,0.0000432517851043075
438,0.000840187072753906,0.0000426915745661142
439,0.000805854797363281,0.0000667282450406484
440,0.000829219818115234,0.0000455660259108678
441,0.000915050506591797,0.0000421542657035764
442,0.000565052032470703,0.0000436377649729803
443,0.000821590423583984,0.0000520561184101585
444,0.000668048858642578,0.000055260674516697
445,0.000749111175537109,0.0000541236431476382
446,0.000669956207275391,0.0000595435783370996
447,0.00057220458984375,0.0000431102723217346
448,0.000704765319824219,0.0000497729834427447
449,0.000671863555908203,0.0000506368733036838
450,0.000568866729736328,0.0000747737833678962
451,0.000613689422607422,0.0000659846839127267
452,0.000579357147216797,0.0000632416235642828
453,0.000609397888183594,0.0000717477526619111
454,0.000676631927490234,0.0000537949668110664
455,0.000582218170166016,0.0000460758939968988
456,0.000681877136230469,0.0000545567145124194
457,0.000683784484863281,0.0000443894162091714
458,0.000566959381103516,0.0000529707923464168
459,0.00049591064453125,0.000069864373544317
460,0.000390052795410156,0.0000520910495453829
461,0.000543594360351563,0.0000753764777763958
462,0.000450611114501953,0.0000873744729694089
463,0.000596046447753906,0.0000737896836003454
464,0.000524044036865234,0.0000492759929383293
465,0.000457286834716797,0.0000472946987745222
466,0.000291347503662109,0.0000606605462927556
467,0.000491619110107422,0.0000697845927167533
468,0.000348567962646484,0.0000619282793536281
469,0.000299453735351562,0.0000667146138173734
470,0.000494480133056641,0.0000552956372648228
471,0.000375270843505859,0.0000568886914019056
472,0.000516414642333984,0.0000576923699285768
473,0.0003814697265625,0.0000621957260614884
474,0.000319004058837891,0.0000678081887740193
475,0.000555515289306641,0.0000564302075539552
476,0.000268459320068359,0.0000538762688083381
477,0.000415325164794922,0.000046890334201582
478,0.000365257263183594,0.0000490331443427478
479,0.000422000885009766,0.0000513192876281321
480,0.000378131866455078,0.000036471808904437
481,0.000286579132080078,0.0000476395879645975
482,0.000326156616210937,0.0000540658484766326
483,0.000358104705810547,0.0000650301698411489
484,0.000179290771484375,0.0000509468761753085
485,0.00303936004638672,0.0000579106900835239
486,-0.00140047073364258,0.0000557022546679966
487,0.000230312347412109,0.0000563788106992216
488,0.000100135803222656,0.0000505256166814309
489,0.000345230102539062,0.000058199533014259
490,0.000214576721191406,0.0000746764137055383
491,0.000276565551757812,0.0000806433001868557
492,0.000189304351806641,0.0000805854797363281
493,0.000212192535400391,0.0000590739466321891
494,0.000165939331054687,0.000050080388646421
495,0.000370502471923828,0.0000470464562278833
496,0.000139713287353516,0.000048759951161503
497,0.0000481605529785156,0.0000745499480137909
498,0.000291824340820312,0.0000802121742257192
499,0.000207424163818359,0.0000849439592703067
500,0.000100135803222656,0.0000600758050325622
501,0.0000586509704589844,0.0000592229062994174
502,0.00023651123046875,0.0000510549881527869
503,0.000151157379150391,0.0000566383394882904
504,0.000180244445800781,0.0000611672610913582
505,0.000189304351806641,0.0000597123127291436
506,-0.0000238418579101562,0.0000650791015033327
507,0.00000667572021484375,0.0000613509887718793
508,0.0000777244567871094,0.0000598786730653271
509,0.0000185966491699219,0.0000685286501589263
510,0.000113010406494141,0.0000826580399803533
511,0.0000624656677246094,0.0000701550467083032
512,0.0000348091125488281,0.0000665883927183895
513,0.0000157356262207031,0.0000589612568615129
514,0.0000658035278320313,0.0000526284374403395
515,-0.00000715255737304688,0.0000529622067809248
516,-0.0000414848327636719,0.0000539089661622041
517,-0.0000925064086914063,0.0000567486303988054
518,-0.0000510215759277344,0.0000589545079092791
519,-0.0000553131103515625,0.0000526089922383307
520,-0.0000824928283691406,0.0000651611541888794
521,0.0000901222229003906,0.0000794016200885721
522,-0.0000252723693847656,0.0000552791869614534
523,-0.0000524520874023438,0.0000508474784376275
524,-0.0000481605529785156,0.0000564181183887748
525,-0.000109195709228516,0.0000461806386792105
526,-0.0000467300415039063,0.000060550809379579
527,-0.0000600814819335938,0.000074336144871098
528,-0.0000262260437011719,0.0000576460429396749
529,-0.0000400543212890625,0.0000519796247128808
530,-0.0000891685485839844,0.0000443022523854711
531,-0.0000629425048828125,0.0000574019652772063
532,-0.0000157356262207031,0.000079198044235808
533,0.0000123977661132812,0.0000798171849431181
534,-0.0000195503234863281,0.0000648621238992844
535,-0.000155925750732422,0.0000494395288308328
536,-0.000145435333251953,0.0000412147047280158
537,-0.000220775604248047,0.0000680425071508619
538,-0.0000810623168945313,0.0000463636789700765
539,-0.000174045562744141,0.0000661739345615871
540,-0.000127792358398437,0.0000519063037324425
541,-0.0000848770141601563,0.0000512028530913873
542,-0.000155925750732422,0.0000439389335121881
543,-0.000178813934326172,0.000048318452991079
544,-0.000143527984619141,0.0000484441677716453
545,-0.000172138214111328,0.0000364562199958327
546,-0.000229358673095703,0.000052333828519911
547,-0.000118255615234375,0.0000563051610130456
548,-0.000278949737548828,0.000032366145371141
549,-0.000227451324462891,0.0000388388182918747
550,-0.000235557556152344,0.000055411678490959
551,-0.000161170959472656,0.0000425862569234968
552,-0.000212192535400391,0.0000441634621372922
553,-0.000230789184570312,0.0000395027281914414
554,-0.000264167785644531,0.0000401882079731373
555,-0.000225543975830078,0.0000447998597446176
556,-0.000180721282958984,0.0000589236457122109
557,-0.000262260437011719,0.0000418972745872642
558,-0.000265121459960937,0.0000422054761475468
559,-0.000174045562744141,0.0000485086607438508
560,-0.000243186950683594,0.0000569546006983709
561,-0.000321865081787109,0.0000420144680949733
562,-0.000235557556152344,0.0000341596502086111
563,-0.000249385833740234,0.0000493151987985531
564,-0.000247001647949219,0.0000481699943730346
565,-0.000332832336425781,0.00004950387332247
566,-0.000294208526611328,0.0000535450124708309
567,-0.000210285186767578,0.0000521815431955632
568,-0.000270843505859375,0.0000532437318886103
569,-0.000111103057861328,0.0000387428357046628
570,-0.000187397003173828,0.0000428716118829858
571,-0.000136852264404297,0.0000400989998543065
572,-0.000462532043457031,0.000039808049826657
573,-0.0000848770141601563,0.0000354306373372267
574,-0.000336647033691406,0.0000514420890093516
575,-0.000425815582275391,0.0000545712993625562
576,-0.0000829696655273438,0.0000327962066660797
577,-0.000252723693847656,0.0000295922504933332
578,-0.000545024871826172,0.0000285580278049
579,-0.000377655029296875,0.0000328273900083939
580,-0.000133514404296875,0.0000320626454008042
581,-0.0000605583190917969,0.0000331718992870098
582,-0.000680446624755859,0.0000368277609150879
583,-0.000528812408447266,0.0000397744791331722
584,-0.000057220458984375,0.0000350694198764742
585,-0.000281333923339844,0.000031621710598582
586,-0.000527381896972656,0.0000306967971367635
587,-0.0000996589660644531,0.0000316863583792529
588,-0.000499725341796875,0.0000264214690550996
589,-0.000442028045654297,0.0000338151181249454
590,-0.000273227691650391,0.0000361044773029059
591,-0.000453948974609375,0.0000355275683913808
592,0.0000319480895996094,0.000042313756714309
593,-0.000346183776855469,0.000049137369277686
594,-0.000262737274169922,0.0000333206491111638
595,-0.000361919403076172,0.0000296234484888771
596,-0.000582218170166016,0.0000247548071499041
597,-0.000268936157226562,0.0000344966226441229
598,-0.000408172607421875,0.0000330173149561344
599,-0.000317573547363281,0.0000275597852462264
600,-0.000415802001953125,0.0000326407138357623
601,-0.000452995300292969,0.0000362858665470855
602,-0.000379562377929687,0.000032376681226033
603,-0.000453472137451172,0.0000386032002411062
604,-0.000565052032470703,0.0000298808969369419
605,-0.000216484069824219,0.0000336491316424129
606,-0.000586509704589844,0.0000310457245076333
607,-0.000458717346191406,0.0000207776696333617
608,-0.00058746337890625,0.0000251997272565303
609,-0.000475406646728516,0.000036396921250995
610,-0.000396728515625,0.0000400982910595553
611,-0.000636577606201172,0.0000351730033987237
612,-0.000516414642333984,0.0000325997631743187
613,-0.000535011291503906,0.0000326781343824757
614,-0.000621795654296875,0.0000304471820780099
615,-0.000552177429199219,0.0000225787555470437
616,-0.000720500946044922,0.0000202799493666198
617,-0.000470161437988281,0.0000441390001929737
618,-0.000590801239013672,0.000044041016545585
619,-0.000571727752685547,0.0000341579861165284
620,-0.000470638275146484,0.0000343231679174613
621,-0.000645637512207031,0.000041486888045338
622,-0.000480175018310547,0.0000445530266830371
623,-0.000641822814941406,0.0000488263554550438
624,-0.0006256103515625,0.0000299260432425008
625,-0.000671863555908203,0.0000283041114277555
626,-0.000699043273925781,0.0000280828344950229
627,-0.000579833984375,0.0000442778671178871
628,-0.000699996948242188,0.0000531913933863163
629,-0.000564098358154297,0.0000405451806439997
630,-0.000771045684814453,0.0000327172495874558
631,-0.000678062438964844,0.0000325212031038858
632,-0.000590324401855469,0.0000358413786402728
633,-0.000635623931884766,0.0000226873788213759
634,-0.000656604766845703,0.0000285371203927335
635,-0.000670909881591797,0.0000482749053490052
636,-0.000623703002929688,0.0000348849645892186
637,-0.000733375549316406,0.000042505425830968
638,-0.000597953796386719,0.0000473403488792195
639,-0.000723838806152344,0.0000599867967769958
640,-0.000679969787597656,0.0000467178757070523
641,-0.000672817230224609,0.0000414964780138081
642,-0.000637054443359375,0.0000420982673425198
643,-0.000566482543945313,0.0000418157913661492
644,-0.000605583190917969,0.0000336626433155539
645,-0.000590801239013672,0.0000510750249961779
646,-0.000713348388671875,0.0000369194845693072
647,-0.000700473785400391,0.0000446944227572805
648,-0.000692844390869141,0.0000487681109449219
649,-0.000680446624755859,0.0000430693776096747
650,-0.000729560852050781,0.0000429980487748895
651,-0.000669479370117188,0.000046559431071221
652,-0.000704288482666016,0.0000513059941976208
653,-0.000632286071777344,0.0000512760713782541
654,-0.000817775726318359,0.0000379879438061516
655,0.00124073028564453,0.0000344182633068439
656,0.000257492065429687,0.0000364608973682453
657,-0.00394487380981445,0.0000544148296740833
658,-0.000417709350585938,0.0000493151987985531
659,-0.000830173492431641,0.00005091339300116
660,-0.000728130340576172,0.0000466216543078383
661,-0.0006866455078125,0.0000610025512510883
662,-0.000726699829101563,0.0000512926973218765
663,-0.000780582427978516,0.0000439790196588993
664,-0.000741004943847656,0.0000566122393322334
665,-0.000774383544921875,0.0000458359330776135
666,-0.000816822052001953,0.0000453095675942393
667,-0.000767707824707031,0.0000501246357956615
668,-0.000759124755859375,0.00006020340582893
669,-0.000745296478271484,0.0000438132657414337
670,-0.000749588012695313,0.0000410945389429757
671,-0.000756740570068359,0.0000408461893814292
672,-0.000712871551513672,0.0000457726417456068
673,-0.000821590423583984,0.000041610019167039
674,-0.000768661499023438,0.0000480695847360038
675,-0.000771522521972656,0.0000420158210218633
676,-0.000754356384277344,0.0000374058919858729
677,-0.000769615173339844,0.000041497162926751
678,-0.000806808471679688,0.0000273085560538153
679,-0.000800132751464844,0.000034704442926271
680,-0.000788211822509766,0.0000399192735948926
681,-0.000758647918701172,0.0000401811351992889
682,-0.000830173492431641,0.0000379482697025795
683,-0.000757217407226563,0.0000324678487549404
684,-0.000714778900146484,0.0000347984964041809
685,-0.00079345703125,0.0000457291558313884
686,-0.000782966613769531,0.0000379490186544866
687,-0.000725746154785156,0.000042627615118881
688,-0.000767707824707031,0.0000299910292978416
689,-0.000767707824707031,0.0000329578653891781
690,-0.000781536102294922,0.0000405795145483376
691,-0.000753879547119141,0.0000387032010797558
692,-0.000696659088134766,0.0000454260915277228
693,-0.00072479248046875,0.0000400245078712442
694,-0.000767707824707031,0.0000278852926881972
695,-0.000701427459716797,0.0000316621309300118
696,-0.000766277313232422,0.0000419433781462956
697,-0.000662326812744141,0.0000333692333155014
698,-0.0007781982421875,0.0000385169623522965
699,-0.000710964202880859,0.0000423808724445806
700,-0.000789165496826172,0.0000334627928920922
701,-0.000771522521972656,0.0000370830957321617
702,-0.000764369964599609,0.000036742770689541
703,-0.000722408294677734,0.0000362545221223293
704,-0.000756263732910156,0.0000266757256510301
705,-0.000748157501220703,0.0000351180126944007
706,-0.000687122344970703,0.0000335035370109542
707,-0.000759124755859375,0.0000270471140610079
708,-0.000832557678222656,0.0000331221675621266
709,-0.000805377960205078,0.0000337579155357892
710,-0.0007781982421875,0.000035990151230319
711,-0.000812530517578125,0.0000363758313202858
712,-0.000773906707763672,0.0000417402777672091
713,-0.000767230987548828,0.0000422054761475468
714,-0.000738143920898438,0.0000312964686568722
715,-0.000831127166748047,0.0000419711514077996
716,-0.000817775726318359,0.0000379999127541249
717,-0.000788211822509766,0.0000448480493775463
718,-0.00079345703125,0.0000435151464330667
719,-0.000856399536132813,0.0000470089858605009
720,-0.000840663909912109,0.0000431023602442811
721,-0.000859737396240234,0.0000469944731812169
722,-0.000844955444335938,0.0000353929148479696
723,-0.000882148742675781,0.0000398829461045945
724,-0.000827789306640625,0.0000440642428897568
725,-0.0008697509765625,0.0000495864792684771
726,-0.000864982604980469,0.000034903698271456
727,-0.000924587249755859,0.0000411884915468
728,-0.000880241394042969,0.0000361406706991396
729,-0.000883579254150391,0.0000427674021736675
730,-0.000883579254150391,0.0000393368980504172
731,-0.000886440277099609,0.0000446065806109785
732,-0.00100851058959961,0.0000477575683883828
733,-0.000931739807128906,0.0000418647003301743
734,-0.000968456268310547,0.0000503407717427191
735,-0.00101470947265625,0.0000483337441994875
736,-0.000995159149169922,0.0000302608502216674
737,-0.0010218620300293,0.0000400670916771724
738,-0.00102710723876953,0.0000435699760876173
739,-0.000982761383056641,0.0000430462747287686
740,-0.00103521347045898,0.000031283752053207
741,-0.00110769271850586,0.0000336127921077292
742,-0.000999927520751953,0.0000374423455376945
743,-0.0010685920715332,0.0000495337191386627
744,-0.00098419189453125,0.0000496288760626192
745,-0.000975608825683594,0.0000407312168105931
746,-0.00100040435791016,0.000034391001966166
747,-0.000997543334960938,0.0000346306576767656
748,-0.00100374221801758,0.0000457192103863314
749,-0.000947475433349609,0.0000583156443569537
750,-0.000980854034423828,0.0000460795949214685
751,-0.000938892364501953,0.0000332941963591948
752,-0.000952720642089844,0.0000457949898509722
753,-0.000895023345947266,0.00005517626144772
754,-0.000950336456298828,0.0000609932323357636
755,-0.000904083251953125,0.0000441106588888157
756,-0.000937461853027344,0.0000424933882331408
757,-0.000886440277099609,0.0000360430228289042
758,-0.000930309295654297,0.0000392073535992017
759,-0.000911235809326172,0.0000489658596120693
760,-0.000891685485839844,0.0000370286390020151
761,-0.0010075569152832,0.000029412582199505
762,-0.000977516174316406,0.0000345056843354611
763,-0.000956535339355469,0.0000391064616276029
764,-0.000863075256347656,0.0000516428071091357
765,-0.000814437866210938,0.0000547968681395509
766,-0.000880241394042969,0.000040768182741829
767,-0.000856399536132813,0.0000469363775910485
768,-0.000823974609375,0.0000355627505437096
769,-0.000849723815917969,0.0000384453193148234
770,-0.000847816467285156,0.0000346569104296513
771,-0.000744819641113281,0.0000358699147742839
772,-0.000859737396240234,0.0000352400081136777
773,-0.000861644744873047,0.000042887519717256
774,-0.000843524932861328,0.0000529085154320111
775,-0.000828742980957031,0.0000380589542606088
776,-0.000863075256347656,0.0000368717242462832
777,-0.000829219818115234,0.0000413606418061424
778,-0.000802040100097656,0.0000449101123135891
779,-0.000740528106689453,0.000036682385572275
780,-0.000823020935058594,0.0000476944434496495
781,-0.000774383544921875,0.0000495245377263245
782,-0.0008087158203125,0.0000489983534315704
783,-0.000847339630126953,0.0000517516620317245
784,-0.000730514526367188,0.0000358596126787393
785,-0.000788688659667969,0.0000379482697025795
786,-0.000792026519775391,0.0000435020815675988
787,-0.000764369964599609,0.0000426022713104212
788,-0.000820159912109375,0.0000388797767195938
789,-0.000759124755859375,0.0000615840312613027
790,-0.000829219818115234,0.0000531550465891558
791,-0.000798702239990234,0.000039904319221706
792,-0.000802993774414063,0.0000382191749579473
793,-0.000819683074951172,0.0000442894197077447
794,-0.000769138336181641,0.0000384467978387856
795,-0.0008087158203125,0.0000437262534045868
796,-0.000855922698974609,0.0000469993112389001
797,-0.000850200653076172,0.0000514487185717233
798,-0.000812530517578125,0.0000381909057833075
799,-0.000833034515380859,0.0000311909460228883
800,-0.000781059265136719,0.0000294830385343756
801,-0.00086212158203125,0.000033900741032134
802,-0.000885486602783203,0.0000397072525987663
803,-0.000826835632324219,0.0000502955845591209
804,-0.000787258148193359,0.0000488379960215354
805,-0.000782012939453125,0.0000498585638944891
806,-0.000803947448730469,0.0000519172537365161
807,-0.00089263916015625,0.0000516097754401213
808,-0.000941753387451172,0.0000493486144773563
809,-0.000874042510986328,0.0000639104115591679
810,-0.000924587249755859,0.0000593398889849957
811,-0.000914573669433594,0.0000382838178857213
812,-0.000990867614746094,0.0000569915165064641
813,-0.000876903533935547,0.00006391930517488
814,-0.000872611999511719,0.0000458817956720436
815,-0.000897407531738281,0.0000439673855103798
816,-0.000918865203857422,0.0000583760478338971
817,-0.000856876373291016,0.0000504163695418452
818,-0.000936985015869141,0.0000358968447381613
819,-0.0008544921875,0.00003855089086021
820,-0.000856399536132813,0.0000508899416712027
821,-0.000973701477050781,0.0000628792560570047
822,-0.000998020172119141,0.0000413180154248319
823,-0.00100040435791016,0.000038631167711728
824,-0.00100278854370117,0.0000422128830388142
825,-0.0010228157043457,0.0000575907961717011
826,-0.000941753387451172,0.0000540795146094024
827,-0.000991344451904297,0.0000532597435967546
828,-0.00103521347045898,0.0000538393285748257
829,-0.00102615356445312,0.0000308906211076499
830,-0.00107526779174805,0.0000368424211877726
831,-0.00107479095458984,0.0000425221390635918
832,-0.00110197067260742,0.0000577642509440695
833,-0.00107955932617187,0.0000649111822387987
834,-0.00115442276000977,0.0000542819994111201
835,-0.00112009048461914,0.0000456507767981547
836,-0.00110864639282227,0.0000491049674480645
837,-0.00116157531738281,0.0000707954654465607
838,-0.00118350982666016,0.0000710919268113628
839,-0.00116729736328125,0.000061500903172215
840,-0.00109386444091797,0.0000366699865908248
841,-0.00109481811523437,0.0000507490061158393
842,-0.00110101699829102,0.0000548435289309577
843,-0.00110673904418945,0.0000451058715453547
844,-0.00105047225952148,0.0000351115375375845
845,-0.000989437103271484,0.0000287682421587405
846,-0.00110244750976562,0.0000387707024485656
847,-0.00104665756225586,0.0000509836822686144
848,-0.00110340118408203,0.0000545369145485232
849,-0.00101566314697266,0.0000467324742832246
850,-0.000983238220214844,0.0000402369762282597
851,-0.000948905944824219,0.0000420692268318691
852,-0.000994682312011719,0.0000446231438011051
853,-0.000982284545898438,0.0000608411327657188
854,-0.000926494598388672,0.000042339273224684
855,-0.000921726226806641,0.0000459993415569692
856,-0.000951766967773438,0.0000395243069152734
857,-0.000985622406005859,0.0000356585254391908
858,-0.000981807708740234,0.0000478194213048693
859,-0.000980377197265625,0.0000518800142931675
860,-0.000846385955810547,0.0000461067259578958
861,-0.000920772552490234,0.0000569406263135801
862,-0.000850677490234375,0.000050490728347584
863,-0.000826358795166016,0.0000585335820569384
864,-0.000829219818115234,0.0000637447641288757
865,-0.000874042510986328,0.0000435438753388018
866,-0.00089263916015625,0.0000476109426217472
867,-0.000802516937255859,0.0000413661387848431
868,-0.000811576843261719,0.0000314124960486232
869,-0.000903129577636719,0.0000440074457403259
870,-0.0009307861328125,0.0000597760596693224
871,-0.000815391540527344,0.000046088229256402
872,-0.000813961029052734,0.0000443817321694942
873,-0.000827789306640625,0.0000519314852900644
874,-0.000813007354736328,0.0000520331821085381
875,-0.000771045684814453,0.0000600303704977721
876,-0.000714302062988281,0.000046671616757363
877,-0.000786781311035156,0.0000601741288381766
878,-0.000709056854248047,0.0000675461336528146
879,-0.000758647918701172,0.0000641890829713808
880,-0.000662326812744141,0.0000453346517835019
881,-0.000874996185302734,0.0000517230960525863
882,-0.000721931457519531,0.000043304322973787
883,-0.000780582427978516,0.0000523772572884484
884,-0.000731945037841797,0.0000563021322526227
885,-0.000713348388671875,0.0000464090200352907
886,-0.000689029693603516,0.0000463881931572545
887,-0.000669479370117188,0.0000420455743993483
888,-0.000738143920898438,0.0000495738678239672
889,-0.000718116760253906,0.0000613176246859684
890,-0.000714778900146484,0.000063291937985488
891,-0.000721931457519531,0.0000426462798664966
892,-0.000675201416015625,0.0000468939708496649
893,-0.000703811645507813,0.0000738974530218742
894,-0.000738620758056641,0.0000450768771167485
895,-0.000657081604003906,0.0000668525015576244
896,-0.000741481781005859,0.0000680241256389615
897,-0.000725269317626953,0.0000668252870229906
898,-0.000705718994140625,0.0000564443083074863
899,-0.000705718994140625,0.0000616559849466003
900,-0.000678062438964844,0.0000400933291454425
901,-0.000782012939453125,0.0000350288743685749
902,-0.000676155090332031,0.0000376044376503668
903,-0.000760078430175781,0.0000497718413759629
904,-0.000814437866210938,0.0000481050473632809
905,-0.000747203826904297,0.0000403568784372611
906,-0.000757694244384766,0.0000544002028739911
907,-0.000798702239990234,0.0000564926270279689
908,-0.000812053680419922,0.0000630886375556944
909,-0.000867843627929688,0.0000814345173619719
910,-0.000786781311035156,0.0000668746052122398
911,-0.000769615173339844,0.0000646532106654293
912,-0.000875949859619141,0.0000488601054574815
913,-0.000908851623535156,0.0000561423866239386
914,-0.000848293304443359,0.0000609727257085868
915,-0.000950813293457031,0.0000642280358843906
916,-0.000949382781982422,0.0000668576030496046
917,-0.000967025756835938,0.0000430317465693607
918,-0.000975608825683594,0.0000465618727646475
919,-0.00101804733276367,0.0000634265121192795
920,-0.00109434127807617,0.0000706057209728281
921,-0.00113248825073242,0.0000547314762008742
922,-0.00110960006713867,0.0000548238325519485
923,-0.00123453140258789,0.0000533780809600639
924,-0.00122308731079102,0.0000496025255604109
925,-0.00132846832275391,0.0000776512878133974
926,-0.0013728141784668,0.0000587207100442137
927,-0.00146579742431641,0.0000392225737050606
928,-0.00154352188110352,0.0000416141172631899
929,-0.00158977508544922,0.000056066398698353
930,-0.0015873908996582,0.0000605339091207823
931,-0.00166940689086914,0.000108572375997207
932,-0.00184202194213867,0.0000667043885718819
933,-0.00193405151367187,0.0000528052750092079
934,-0.00197982788085937,0.0000824942064997048
935,-0.00193119049072266,0.0000995779392540303
936,-0.0020451545715332,0.0000751846855762142
937,-0.00223255157470703,0.0000694890980326261
938,-0.00225734710693359,0.0000858200914410907
939,-0.00234222412109375,0.0001142639540332
940,-0.002471923828125,0.0000617959616728236
941,-0.00253200531005859,0.0000761313493951305
942,-0.00274991989135742,0.0000879993899879175
943,-0.00269412994384766,0.0000615046001397379
944,-0.00279521942138672,0.000055376789006793
945,-0.0029444694519043,0.0000756204201085744
946,-0.0029754638671875,0.0000914881398893663
947,-0.00311708450317383,0.0000922947852091614
948,-0.00330448150634766,0.0000816088373119463
949,-0.00341415405273437,0.0000873302228424781
950,-0.00344228744506836,0.000101540566704391
951,-0.00378131866455078,0.0000979549340447146
952,-0.00394010543823242,0.0000994911332066615
953,-0.00404596328735352,0.000101417333737138
954,-0.00437116622924805,0.0000967356758726669
955,-0.00447368621826172,0.0000929526743393799
956,-0.00462055206298828,0.000103285614218271
957,-0.00496816635131836,0.0000795603905889365
958,-0.00507068634033203,0.000100967945963918
959,-0.00524663925170898,0.000104674173855151
960,-0.00517368316650391,0.0000768018742502312
961,-0.00530862808227539,0.0000982168801904976
962,-0.00539875030517578,0.000158246728619001
963,-0.00531625747680664,0.000173143767892001
964,-0.00533723831176758,0.000108886054811036
965,-0.00530242919921875,0.000118999296244156
966,-0.00535345077514648,0.000127678436059414
967,-0.00508403778076172,0.000149301057081833
968,-0.00519132614135742,0.000149905954155949
969,-0.0048985481262207,0.000130618571078382
970,-0.00499391555786133,0.000144820398504091
971,-0.00458860397338867,0.000142882565663894
972,-0.00465250015258789,0.000138614519692761
973,-0.00446987152099609,0.000123094198610402
974,-0.00415611267089844,0.0000992577521252383
975,-0.0041651725769043,0.000113272664422011
976,-0.00421857833862305,0.000111165458935497
977,-0.00432109832763672,0.000136515405482418
978,-0.00395679473876953,0.000168157960777425
979,-0.00393486022949219,0.000153662947542434
980,-0.00377178192138672,0.000149635724554492
981,-0.0036468505859375,0.00014540328000913
982,-0.00356960296630859,0.000151697181728134
983,-0.00334978103637695,0.000122371688983569
984,-0.00303363800048828,0.000169397365196858
985,-0.00309276580810547,0.000142407558999278
986,-0.00302410125732422,0.000155428434555883
987,-0.00287103652954102,0.000132667032335504
988,-0.00267505645751953,0.000122931541781021
989,-0.00208616256713867,0.000158031057124803
990,-0.00261068344116211,0.000181704366110891
991,-0.00216817855834961,0.000186598754451027
992,-0.00217008590698242,0.00012660542888852
993,-0.00209903717041016,0.000138906191719853
994,-0.00157928466796875,0.000209626205448796
995,-0.0016026496887207,0.00016554423684871
996,-0.00158214569091797,0.000163304022134747
997,-0.0013885498046875,0.000197449740152268
998,-0.00140714645385742,0.000146161284374298
999,-0.00116968154907227,0.000198547572016496
1000,-0.00122499465942383,0.000169810275071065
1001,-0.000776767730712891,0.000207686532366167
1002,-0.00110673904418945,0.000192027480295612
1003,-0.00126218795776367,0.000155504485886223
1004,-0.000639915466308594,0.000173400965512344
1005,-0.000442981719970703,0.000170989842323731
1006,-0.000529289245605469,0.000257957884858196
1007,-0.000529766082763672,0.000241650608983368
1008,-0.000168323516845703,0.00026658566352401
1009,-0.000476360321044922,0.000198231249011858
1010,-0.000203609466552734,0.00021049646762113
1011,-0.000339508056640625,0.000237344228576158
1012,-0.0000171661376953125,0.000220292574312435
1013,-0.000143527984619141,0.000220288445697445
1014,-0.000396728515625,0.000222249088306989
1015,0.0000863075256347656,0.000246918785895383
1016,-0.000552654266357422,0.000273203973589516
1017,0.0001068115234375,0.000268536805511222
1018,-0.00025177001953125,0.000245211161498843
1019,-0.000458717346191406,0.000233118269168969
1020,-0.000430107116699219,0.000252937730086903
1021,0.000623226165771484,0.000256912143537562
1022,-0.000158309936523437,0.000276466878191578
1023,-0.000293254852294922,0.000358439478226452
1024,-0.000236034393310547,0.000299556981650777
1025,-0.00054931640625,0.000239374153160065
1026,-0.00000810623168945313,0.0002451443899304
1027,-0.000352859497070312,0.000242739621300399
1028,-0.000330924987792969,0.000336397040375499
1029,-0.000223636627197266,0.000280360785606731
1030,-0.000247478485107422,0.000328612423579668
1031,0.000132083892822266,0.000346213988359884
1032,-0.000321865081787109,0.000289012099073422
1033,-0.000707149505615234,0.000301511944059294
1034,-0.000265121459960937,0.000417539483634122
1035,-0.000603675842285156,0.000352379756290929
1036,0.000473499298095703,0.000410004542313977
1037,-0.000261783599853516,0.00034708504752875
1038,-0.000161647796630859,0.000397635303907764
1039,-0.000627994537353516,0.000316694549578472
1040,-0.000406742095947266,0.000284815117998555
1041,-0.000152587890625,0.000489115003198993
1042,-0.000701904296875,0.000379605506478637
1043,-0.00118684768676758,0.000378521013073911
1044,-0.00136327743530273,0.000470059869407634
1045,-0.00160312652587891,0.000478695110797147
1046,-0.000981807708740234,0.000441533700089167
1047,-0.00149631500244141,0.000438764814580293
1048,-0.000868320465087891,0.000479810978272046
1049,-0.00117874145507812,0.000433123556466848
1050,-0.00161457061767578,0.000336488951398282
1051,-0.00146675109863281,0.000563026572494357
1052,-0.00156211853027344,0.000617450910654429
1053,-0.00173473358154297,0.000567775112217867
1054,-0.00132036209106445,0.000597618319205333
1055,-0.00191497802734375,0.000615219729112958
1056,-0.000814437866210938,0.000750555622402855
1057,-0.001434326171875,0.000612588597599665
1058,-0.00112438201904297,0.00044553639091566
1059,-0.00236415863037109,0.000802429526516053
1060,-0.00132846832275391,0.000897257018971804
1061,-0.00107336044311523,0.000984458000226131
1062,-0.00176000595092773,0.000920125224078975
1063,-0.00268983840942383,0.000459500831344176
1064,-0.00124454498291016,0.000635842638386037
1065,-0.00287628173828125,0.000720826390432583
1066,-0.00289201736450195,0.000596936134102317
1067,-0.00148105621337891,0.000808049773403112
1068,-0.0014338493347168,0.000803788487295651
1069,-0.00215005874633789,0.000924401193227355
1070,-0.00214195251464844,0.000712297042217809
1071,-0.00194740295410156,0.000802556460218204
1072,-0.00173568725585937,0.00102801667863168
1073,-0.00285243988037109,0.00116347641239674
1074,-0.00144863128662109,0.000979746159024873
1075,-0.00241613388061523,0.00107906721241682
1076,-0.00336265563964844,0.0010429971116028
1077,-0.00109291076660156,0.00110599909317165
1078,-0.00329160690307617,0.00126732947081069
1079,-0.00232839584350586,0.0014253701963082
1080,-0.000275135040283203,0.00166170244581064
1081,-0.00236177444458008,0.00120554090668357
1082,0.000900745391845703,0.00082335625510996
1083,-0.00109004974365234,0.00107890537256403
1084,-0.000375270843505859,0.00141746676836216
1085,-0.00514745712280273,0.00189411915888692
1086,-0.00372934341430664,0.0017101079789342
1087,-0.000575065612792969,0.00119881072232171
1088,-0.00484275817871094,0.00157768057476211
1089,-0.0049586296081543,0.00126709980308426
1090,-0.000905036926269531,0.00126079062967881
1091,-0.00379848480224609,0.00203486121559688
1092,-0.00525760650634766,0.00184836155815226
1093,-0.00497817993164063,0.00176781484167434
1094,-0.00161838531494141,0.00188398162071221
1095,-0.00378894805908203,0.00172194606388587
1096,-0.00343561172485352,0.00127253177823293
1097,-0.001068115234375,0.00224988244663555
1098,-0.000636577606201172,0.00269044083387001
1099,-0.00262165069580078,0.00163916613793894
1100,-0.00217247009277344,0.00198616454389547
