Wavelength (nm),Absorbance (AU),Std.Dev.
190,0.354980945587158,0.000104715437600792
191,0.357168197631836,0.0000775575308003723
192,0.358126163482666,0.0000743269681356923
193,0.359041690826416,0.0000637946817278557
194,0.359471797943115,0.0000600161651518486
195,0.35925817489624,0.0000541267938094069
196,0.35909366607666,0.0000725074763289856
197,0.358366012573242,0.000072435315520318
198,0.356952667236328,0.0000556522283475692
199,0.354884147644043,0.0000593762791406218
200,0.352129936218262,0.0000586684131271645
201,0.348886013031006,0.0000517791144573647
202,0.345260143280029,0.0000607869196425347
203,0.341012477874756,0.0000759414636673678
204,0.335966110229492,0.0000824376842549738
205,0.330018997192383,0.00006653202772747
206,0.323055267333984,0.0000623910035468907
207,0.315063953399658,0.000056459412349726
208,0.305918216705322,0.0000680274681014669
209,0.2960205078125,0.0000643217801243486
210,0.285111427307129,0.0000536129118600698
211,0.273282527923584,0.0000546493662080985
212,0.260879993438721,0.0000549139633478213
213,0.247618198394775,0.0000448404439311711
214,0.234097003936768,0.0000414457630470807
215,0.2200927734375,0.000058111563631371
216,0.206133842468262,0.000043096425232936
217,0.192123413085937,0.0000397194190171869
218,0.178348541259766,0.0000298156708387414
219,0.164837837219238,0.00003501751321361
220,0.152064323425293,0.0000296440691180995
221,0.13971471786499,0.0000367435442134132
222,0.128029823303223,0.0000315298993410488
223,0.117177963256836,0.0000286429932866319
224,0.107306480407715,0.0000302833832025229
225,0.0980329513549805,0.0000380716474234008
226,0.0896792411804199,0.0000433436845843741
227,0.0822639465332031,0.0000358025012437849
228,0.0754923820495606,0.0000298047064781265
229,0.0696320533752441,0.0000333479331682317
230,0.0643982887268066,0.0000331264577204974
231,0.059781551361084,0.0000299891338905657
232,0.0557365417480469,0.0000281500564942434
233,0.052147388458252,0.0000216915052410002
234,0.0490627288818359,0.0000280686619811276
235,0.0464186668395996,0.0000329656257604937
236,0.0441107749938965,0.0000282171183500962
237,0.042149543762207,0.0000298932595446086
238,0.0404191017150879,0.0000213850301750995
239,0.0388956069946289,0.0000196673652148193
240,0.0376605987548828,0.0000238484135198091
241,0.0365715026855469,0.0000296541344465945
242,0.0355343818664551,0.0000294401091893385
243,0.0346951484680176,0.0000241356863686443
244,0.0339293479919434,0.0000252628083407154
245,0.0332250595092773,0.0000254968578417348
246,0.0325565338134766,0.0000298961117280812
247,0.0320062637329102,0.000029632561699123
248,0.0314722061157227,0.0000285868748073728
249,0.030975341796875,0.0000213364648149945
250,0.0304689407348633,0.0000241633436599488
251,0.0300054550170898,0.0000327918733010163
252,0.029627799987793,0.0000337907347457413
253,0.029242992401123,0.0000373290713781343
254,0.0289011001586914,0.0000341854332773384
255,0.0285654067993164,0.0000266389421910542
256,0.0282192230224609,0.0000234178752977217
257,0.0279808044433594,0.0000296056936605821
258,0.0277199745178223,0.0000386833685388278
259,0.0274271965026855,0.0000389746928431434
260,0.0271644592285156,0.000026439749717995
261,0.0268430709838867,0.0000389856298333153
262,0.0266752243041992,0.000031061283752036
263,0.0263838768005371,0.000029210897975235
264,0.0261492729187012,0.0000371711310326934
265,0.0259609222412109,0.0000439350522666733
266,0.0256857872009277,0.0000436169180758284
267,0.0254158973693848,0.0000560055341260075
268,0.0251684188842773,0.000059928965371209
269,0.0249218940734863,0.0000431926036146436
270,0.0245938301086426,0.0000446651612371311
271,0.0244145393371582,0.0000406585822097871
272,0.0241169929504395,0.0000307578448546127
273,0.0238914489746094,0.0000407667884096043
274,0.0236225128173828,0.0000389374840976593
275,0.023341178894043,0.000045627112250922
276,0.0230917930603027,0.0000409462652668046
277,0.022773265838623,0.0000518317823559976
278,0.0226259231567383,0.0000428145602736188
279,0.0222315788269043,0.0000434484745459197
280,0.0219497680664062,0.0000364811590521477
281,0.0216941833496094,0.0000364951797820971
282,0.0212984085083008,0.0000340438021841423
283,0.0210080146789551,0.0000401514159440408
284,0.0207109451293945,0.0000303644570826206
285,0.0204153060913086,0.0000338982257982809
286,0.0200343132019043,0.0000462753203697647
287,0.0197639465332031,0.0000320227306182495
288,0.0194282531738281,0.000032536930292572
289,0.0190372467041016,0.0000321007398218285
290,0.0187196731567383,0.0000324038829956665
291,0.0183944702148437,0.000035515566509931
292,0.0181121826171875,0.0000388878170558973
293,0.0177831649780273,0.0000267703829499624
294,0.0174355506896973,0.0000210744357555359
295,0.0170955657958984,0.0000244178340651053
296,0.0168132781982422,0.0000337233788512982
297,0.0165534019470215,0.0000263125985361507
298,0.0162506103515625,0.0000313862461734085
299,0.016059398651123,0.0000445721604724882
300,0.0157604217529297,0.0000433266322769186
301,0.0154948234558105,0.0000278949737548828
302,0.0152525901794434,0.0000312664855327262
303,0.0149168968200684,0.0000450983095785165
304,0.0147509574890137,0.0000460104619104635
305,0.0145220756530762,0.0000443970989189314
306,0.0143089294433594,0.000026132133714726
307,0.0140352249145508,0.0000319445309151539
308,0.0138263702392578,0.0000454085694088346
309,0.0136194229125977,0.0000651942951113082
310,0.0133500099182129,0.00005517626144772
311,0.0131440162658691,0.0000352891714326446
312,0.012946605682373,0.0000349793452051192
313,0.0126876831054687,0.0000394940934006665
314,0.0124936103820801,0.0000528224957589247
315,0.0123047828674316,0.0000557552947320689
316,0.0121145248413086,0.0000666225301105214
317,0.0118594169616699,0.0000512272708147532
318,0.0116777420043945,0.0000442817183160549
319,0.0115351676940918,0.0000395904083291385
320,0.0112600326538086,0.0000414848327636719
321,0.0110907554626465,0.0000333700850385975
322,0.0108566284179687,0.0000388117327597134
323,0.0106749534606934,0.0000487972418900828
324,0.0104222297668457,0.0000431517869275694
325,0.0102400779724121,0.0000319845432863745
326,0.0100669860839844,0.0000306411936667612
327,0.00989055633544922,0.0000341804445238237
328,0.00969600677490234,0.0000453208571975028
329,0.00953388214111328,0.0000338848080645215
330,0.00935029983520508,0.000040768182741829
331,0.00909900665283203,0.0000522000586830292
332,0.00893926620483398,0.0000544649488815525
333,0.00885725021362305,0.0000339560290401076
334,0.00863361358642578,0.0000358152005440845
335,0.00839042663574219,0.0000424518992692089
336,0.00827741622924805,0.0000345106260733075
337,0.00811147689819336,0.0000396907862142895
338,0.00796270370483398,0.0000449695615877241
339,0.00782680511474609,0.0000441029262813606
340,0.007598876953125,0.0000421690961750742
341,0.00750160217285156,0.0000326868306953695
342,0.00726890563964844,0.0000487937470949514
343,0.00719642639160156,0.0000343794300181487
344,0.00708913803100586,0.0000460289898626945
345,0.00693225860595703,0.0000534461924237202
346,0.00679349899291992,0.000037049357331144
347,0.00660896301269531,0.0000339191803813529
348,0.00644063949584961,0.0000383616901463877
349,0.00629949569702148,0.0000485320914850827
350,0.00624513626098633,0.0000404525443225138
351,0.00604534149169922,0.0000458669263417389
352,0.00589847564697266,0.0000419901079568098
353,0.00574254989624023,0.0000463575483977713
354,0.00559329986572266,0.0000562718356823391
355,0.00554180145263672,0.0000731086382628213
356,0.0054020881652832,0.0000597142166082625
357,0.00535726547241211,0.0000427966330347855
358,0.00521945953369141,0.0000452518211903316
359,0.00518608093261719,0.0000718237700796613
360,0.00501203536987305,0.0000599346561806264
361,0.00479602813720703,0.0000524650904403658
362,0.00463247299194336,0.0000566965196160989
363,0.00443267822265625,0.0000438534667603242
364,0.00443649291992188,0.0000649356975098808
365,0.00438642501831055,0.0000494774562468561
366,0.00437831878662109,0.0000409469593830652
367,0.0042424201965332,0.000068473882329797
368,0.00394248962402344,0.0000631066551592477
369,0.00407075881958008,0.0000730106050316742
370,0.00394964218139648,0.0000567636534651007
371,0.00398921966552734,0.0000531357941016819
372,0.00387382507324219,0.0000633870666520967
373,0.00386524200439453,0.0000723363697801811
374,0.00390625,0.0000921887912965406
375,0.00382900238037109,0.0000641146526024917
376,0.00372934341430664,0.000051161760639197
377,0.0037541389465332,0.0000428225255262889
378,0.00368738174438477,0.0000408427101193012
379,0.003448486328125,0.0000363375257374207
380,0.00342750549316406,0.0000548072406373514
381,0.00339269638061523,0.0000514575566595827
382,0.00356578826904297,0.000072152253415595
383,0.0032048225402832,0.0000662666416369137
384,0.00316524505615234,0.000078691134678698
385,0.00310754776000977,0.0000781242060434708
386,0.00312614440917969,0.000072764162926341
387,0.0032811164855957,0.0000491362124374067
388,0.00299453735351562,0.0000461215179781537
389,0.00251436233520508,0.0000648516065697178
390,0.00300121307373047,0.0000580753597895629
391,0.00284624099731445,0.0000589969170693266
392,0.00288248062133789,0.0000659915752635458
393,0.00257587432861328,0.0000760700995137397
394,0.00256729125976562,0.0000641713692853158
395,0.00251007080078125,0.0000633834794832728
396,0.00237131118774414,0.0000755346783795167
397,0.0025944709777832,0.0000643624191038547
398,0.00235843658447266,0.0000550597240701823
399,0.00187540054321289,0.0000549470777145879
400,0.00218820571899414,0.0000685618214906327
401,0.00193929672241211,0.0000860423551074216
402,0.00202608108520508,0.0000751408218520821
403,0.00206708908081055,0.0000615304726928476
404,0.00201654434204102,0.0000706137713372546
405,0.00195169448852539,0.0000565670375263952
406,0.00150680541992187,0.0000743254385696362
407,0.00164604187011719,0.0000642634271345329
408,0.00185251235961914,0.0000697259200608152
409,0.00144052505493164,0.0000779114562391691
410,0.00145912170410156,0.0000711830201470296
411,0.00159835815429687,0.0000748345750717328
412,0.00152349472045898,0.0000741217250186126
413,0.00134992599487305,0.0000612341349390545
414,0.00117826461791992,0.0000659157307783561
415,0.00115013122558594,0.000071658963753392
416,0.00107955932617187,0.0000756655083090082
417,0.00124311447143555,0.0000725027723785241
418,0.00124073028564453,0.0000526694648467701
419,0.00118732452392578,0.0000464592111532536
420,0.00116825103759766,0.0000474075425952308
421,0.00136280059814453,0.0000677578722699418
422,0.000719547271728516,0.000057009466904941
423,0.000990390777587891,0.000045624620531932
424,0.000882148742675781,0.0000350102076671305
425,0.000721931457519531,0.0000596513565130657
426,0.000910282135009766,0.0000545233630619255
427,0.00113296508789062,0.0000596999360349126
428,0.000489234924316406,0.0000626002020465119
429,0.00121068954467773,0.0000495004284164692
430,0.000542640686035156,0.0000576174396195189
431,0.000140190124511719,0.0000841289948186529
432,0.000397205352783203,0.0000726140174727205
433,0.000802040100097656,0.0000770870352764255
434,0.000342845916748047,0.0000802915052782171
435,0.000227928161621094,0.0000524054666885152
436,0.000531673431396484,0.0000543479321671516
437,0.000539779663085938,0.0000675461336528146
438,0.000567913055419922,0.0000499758555495169
439,0.000321388244628906,0.0000562283821307188
440,0.000523567199707031,0.0000528999197590845
441,0.000767707824707031,0.0000535598728175258
442,-0.0000963211059570313,0.0000626673609006754
443,0.000582695007324219,0.0000535779119831186
444,0.0000238418579101562,0.0000425281542194484
445,0.0000891685485839844,0.0000534940313707127
446,0.000293254852294922,0.0000679087099372358
447,-0.0000472068786621094,0.0000420834119104824
448,0.000144481658935547,0.0000548528563261777
449,0.000262737274169922,0.0000487984067661739
450,-0.0000405311584472656,0.0000583672834657049
451,-0.00000476837158203125,0.000070250591638045
452,-0.00000333786010742187,0.0000639495342166147
453,0.00000858306884765625,0.0000562708255157364
454,0.000188350677490234,0.0000741063855749313
455,-0.0000457763671875,0.0000792310532891757
456,0.0000119209289550781,0.0000640845014481322
457,0.000165462493896484,0.0000536902547700167
458,0.0000243186950683594,0.0000723426560728653
459,-0.000186920166015625,0.0000803368021361078
460,-0.000293254852294922,0.0000637928996290572
461,-0.000148773193359375,0.0000497764094858689
462,-0.000125408172607422,0.0000632542059216188
463,0.000215530395507812,0.0000526856510808301
464,-0.0000567436218261719,0.000043397421048909
465,-0.000225543975830078,0.0000380985131023605
466,-0.000427722930908203,0.0000336736175578954
467,-0.000140190124511719,0.0000506177860216353
468,-0.000356197357177734,0.0000587952011188088
469,-0.000255584716796875,0.0000632739731422362
470,-0.000281333923339844,0.0000587516788432782
471,-0.000163555145263672,0.0000619374575848752
472,-0.000195503234863281,0.000052497583944858
473,-0.000247001647949219,0.0000431583728751555
474,-0.000375270843505859,0.0000548994695314787
475,-0.000120162963867187,0.0000609783191090153
476,-0.000502109527587891,0.0000735922113771719
477,-0.000378131866455078,0.0000642050211103913
478,-0.000239372253417969,0.0000768847241926063
479,-0.000197887420654297,0.0000765706052932794
480,-0.000321388244628906,0.0000525754864206064
481,-0.000393390655517578,0.0000506301374375677
482,-0.0004730224609375,0.0000619924984360326
483,-0.000167369842529297,0.0000749332564024187
484,-0.000787258148193359,0.0000594929602456213
485,0.00461196899414063,0.0000540826678419412
486,-0.00339555740356445,0.0000568677042426463
487,-0.000701904296875,0.0000636430251822282
488,-0.000913619995117188,0.0000448074720795956
489,-0.000499248504638672,0.0000553018048670131
490,-0.000637531280517578,0.0000716684821121713
491,-0.000687122344970703,0.0000851564949426114
492,-0.0006256103515625,0.0000762999055441651
493,-0.000567913055419922,0.0000574277065140717
494,-0.000728607177734375,0.0000375620885940081
495,-0.000467300415039063,0.0000494395288308328
496,-0.000645160675048828,0.0000543866173230235
497,-0.000710010528564453,0.0000642687341411184
498,-0.000596523284912109,0.0000517088071451536
499,-0.000616073608398438,0.0000650721135186134
500,-0.00093841552734375,0.0000544315412041863
501,-0.000639438629150391,0.0000704203085864929
502,-0.000775814056396484,0.0000731475039254939
503,-0.000772953033447266,0.0000766670521402968
504,-0.000905036926269531,0.0000779945851505618
505,-0.000594615936279297,0.0000603806525212713
506,-0.000935554504394531,0.0000510416258873927
507,-0.000879764556884766,0.0000594795822367556
508,-0.000783920288085938,0.0000676134240995205
509,-0.000734329223632813,0.000074629204605047
510,-0.000765800476074219,0.000055038039491723
511,-0.000896930694580078,0.0000531561159673376
512,-0.000746726989746094,0.0000608168363073504
513,-0.000815868377685547,0.0000472153068494018
514,-0.000832080841064453,0.0000682060510480451
515,-0.000827789306640625,0.0000818661496429673
516,-0.000937461853027344,0.000063828532151318
517,-0.000972270965576172,0.0000549698322700991
518,-0.000902175903320313,0.0000679823309916565
519,-0.000898838043212891,0.000057443541541847
520,-0.000981807708740234,0.000062336314563221
521,-0.000907421112060547,0.0000457639478684653
522,-0.00100612640380859,0.0000359158419671364
523,-0.000970363616943359,0.0000452078342958551
524,-0.000972270965576172,0.0000661395656309621
525,-0.000989913940429688,0.0000486479074663123
526,-0.000943183898925781,0.0000345229773231476
527,-0.000961780548095703,0.0000417824733596892
528,-0.0010066032409668,0.0000605019735294692
529,-0.00108814239501953,0.0000633260571470566
530,-0.00098419189453125,0.0000570084698088612
531,-0.000966072082519531,0.0000554034711772072
532,-0.000887393951416016,0.0000794316820914315
533,-0.000915050506591797,0.0000630579958145773
534,-0.0010218620300293,0.0000531432820089274
535,-0.00108003616333008,0.000036972564649544
536,-0.00115442276000977,0.0000248670692297524
537,-0.000987052917480469,0.00004035124396904
538,-0.00110578536987305,0.0000591672104629052
539,-0.000989913940429688,0.0000510727990684352
540,-0.00107574462890625,0.0000426236144667517
541,-0.00117683410644531,0.000037606705003987
542,-0.0010676383972168,0.0000355403659309526
543,-0.0010986328125,0.0000404427068122411
544,-0.00112724304199219,0.0000438340192582546
545,-0.0011591911315918,0.000074127859907302
546,-0.00102901458740234,0.0000645440971853422
547,-0.000895500183105469,0.0000494165283509507
548,-0.00123882293701172,0.0000468915464489472
549,-0.00114583969116211,0.0000537600854589994
550,-0.00121450424194336,0.0000546150305438168
551,-0.00110721588134766,0.0000393751730082363
552,-0.00115633010864258,0.0000300170790111674
553,-0.00117826461791992,0.0000377906609555713
554,-0.00131034851074219,0.0000417865545428946
555,-0.00108480453491211,0.0000350556396654206
556,-0.00118255615234375,0.0000482442807872047
557,-0.00119638442993164,0.0000334959012638058
558,-0.0012969970703125,0.000032714643362129
559,-0.0011749267578125,0.0000444137402310114
560,-0.00117301940917969,0.0000437704305357472
561,-0.00126409530639648,0.0000378184777847654
562,-0.00125360488891602,0.0000426356152969531
563,-0.00123786926269531,0.0000393585676923683
564,-0.00126552581787109,0.0000387178853012045
565,-0.00128698348999023,0.0000462187806069044
566,-0.00112485885620117,0.0000337570735980271
567,-0.00113630294799805,0.0000417123507837963
568,-0.00122976303100586,0.0000345986352012584
569,-0.000981330871582031,0.0000455535492462734
570,-0.00110387802124023,0.0000359451096911133
571,-0.00102376937866211,0.0000286464660365647
572,-0.00157070159912109,0.0000370117488255637
573,-0.000879287719726563,0.0000436599038945156
574,-0.0012059211730957,0.0000347510925540171
575,-0.00154972076416016,0.0000348588835877957
576,-0.000796794891357422,0.0000282774888049662
577,-0.000973224639892578,0.000030854717290567
578,-0.00153779983520508,0.0000443855743556156
579,-0.00119638442993164,0.0000409045967364046
580,-0.0007476806640625,0.0000266847804575818
581,-0.000655651092529297,0.0000286191687923563
582,-0.00180149078369141,0.0000377304463523833
583,-0.00164413452148437,0.0000336220920063712
584,-0.000652790069580078,0.0000301568874115693
585,-0.00111913681030273,0.0000274833649654189
586,-0.00161218643188477,0.0000273215624824081
587,-0.000730037689208984,0.0000415464469856003
588,-0.00161314010620117,0.0000367334871325588
589,-0.00148916244506836,0.0000297168459583463
590,-0.00115776062011719,0.0000231468711594579
591,-0.00140762329101562,0.0000206431804803611
592,-0.00054168701171875,0.0000204731326334023
593,-0.0012664794921875,0.0000288240075296543
594,-0.0011286735534668,0.0000343248240014129
595,-0.00129461288452148,0.0000354354500837121
596,-0.00152158737182617,0.0000214891071003541
597,-0.00104522705078125,0.0000299948197530747
598,-0.00124645233154297,0.0000380835900649284
599,-0.00112533569335937,0.0000379602511598841
600,-0.00125789642333984,0.0000349931554607401
601,-0.00147342681884766,0.0000266932998226189
602,-0.00128555297851562,0.0000362811666096851
603,-0.00135660171508789,0.0000311909460228883
604,-0.00161933898925781,0.0000328421051834963
605,-0.00105524063110352,0.0000361571817261761
606,-0.00166130065917969,0.000022868306747974
607,-0.00135326385498047,0.0000310887222460223
608,-0.00163555145263672,0.0000347927786769003
609,-0.00155735015869141,0.0000304060813993124
610,-0.00135278701782227,0.0000281682243346752
611,-0.00172328948974609,0.0000276771008700017
612,-0.00153255462646484,0.0000270266152590624
613,-0.00153350830078125,0.0000412973739610744
614,-0.00176000595092773,0.0000432176012398702
615,-0.00164079666137695,0.0000392573403601699
616,-0.00192975997924805,0.0000338839692797435
617,-0.00151729583740234,0.0000285296497466742
618,-0.00162124633789062,0.0000350223827313122
619,-0.00154972076416016,0.0000237139609257917
620,-0.00139427185058594,0.000029628724899612
621,-0.00180721282958984,0.000033466190129958
622,-0.00156831741333008,0.0000374506944791626
