Wavelength (nm),Absorbance (AU),Std.Dev.
190,0.203445911407471,0.0000884324046557286
191,0.198644161224365,0.0000688877055807181
192,0.194250106811523,0.000057081212050039
193,0.190647602081299,0.0000562677949071161
194,0.18749475479126,0.0000407723654524033
195,0.184429168701172,0.0000488531246113274
196,0.181962490081787,0.0000448885899954312
197,0.179638385772705,0.0000388344273267432
198,0.177243232727051,0.0000383861316585804
199,0.174713611602783,0.0000378034442026064
200,0.17218542098999,0.000032982002770288
201,0.169739723205566,0.000037210106108577
202,0.167636871337891,0.0000366226769641539
203,0.165662288665771,0.0000447122247415024
204,0.16376781463623,0.0000367566916286502
205,0.161832332611084,0.0000391115487415572
206,0.159807682037354,0.0000464677749504606
207,0.157721519470215,0.0000363023115361677
208,0.155520915985107,0.0000373024134647307
209,0.153292655944824,0.0000387039354231436
210,0.151040554046631,0.0000349427622996545
211,0.148642539978027,0.0000408677541953098
212,0.146378517150879,0.0000508049797129334
213,0.143943309783936,0.0000443343178290703
214,0.141659736633301,0.0000580234608782339
215,0.139397144317627,0.0000396585496010595
216,0.137101173400879,0.0000272908573632954
217,0.134893417358398,0.0000251053744909061
218,0.132834434509277,0.0000253896197606619
219,0.130810260772705,0.0000288368232389554
220,0.1287841796875,0.0000217823785944319
221,0.126879215240479,0.000030249577436914
222,0.124991893768311,0.0000281788168322701
223,0.123039722442627,0.0000242344012443029
224,0.121284008026123,0.0000283372291612501
225,0.119450569152832,0.0000292230577328135
226,0.117678642272949,0.000032341548362095
227,0.115867137908936,0.0000411884915468
228,0.1141037940979,0.0000456021889343461
229,0.112396240234375,0.0000467956821533116
230,0.110682964324951,0.0000434223007636975
231,0.108974456787109,0.0000321812095519274
232,0.107307434082031,0.0000363914546647851
233,0.105704784393311,0.0000293031855829936
234,0.104084968566895,0.0000265978339236898
235,0.102461338043213,0.0000355587543249171
236,0.100934982299805,0.0000415211277620135
237,0.0994858741760254,0.0000407514476064165
238,0.0980901718139648,0.0000325631253940636
239,0.096733570098877,0.0000318857552795039
240,0.0954813957214356,0.0000352625833934523
241,0.0942840576171875,0.0000360777023253253
242,0.0931344032287598,0.0000458061598149217
243,0.0920920372009277,0.0000387450364394599
244,0.091033935546875,0.0000264811033904624
245,0.0900802612304688,0.0000360351364706213
246,0.0891637802124023,0.0000363320502144551
247,0.0882034301757813,0.0000428941462403279
248,0.0874648094177246,0.000040868449645015
249,0.0866560935974121,0.0000445683343717496
250,0.0858607292175293,0.0000347175438866947
251,0.0851411819458008,0.0000365021881275265
252,0.0844235420227051,0.0000332403726786627
253,0.0837960243225098,0.00002963735700002
254,0.0832443237304688,0.0000305105924061468
255,0.0824952125549316,0.0000326476790455158
256,0.0818686485290527,0.0000334296517302153
257,0.081263542175293,0.0000305050026792468
258,0.0805845260620117,0.0000454598651131252
259,0.079899787902832,0.0000479665948531899
260,0.0792665481567383,0.0000283422436238119
261,0.0786051750183106,0.0000402525131042581
262,0.0777301788330078,0.000056839709309363
263,0.0770120620727539,0.0000586751949866696
264,0.0762624740600586,0.0000521815431955632
265,0.0755419731140137,0.0000592133073064861
266,0.0747499465942383,0.0000460746602893145
267,0.073786735534668,0.0000393144935392055
268,0.0729761123657227,0.0000477551878301784
269,0.0720505714416504,0.0000456993130029991
270,0.0711345672607422,0.0000454010578591581
271,0.0703158378601074,0.000040768182741829
272,0.0694112777709961,0.0000443676413070357
273,0.0684452056884766,0.0000374036124592559
274,0.0674819946289063,0.0000402758071803766
275,0.0666317939758301,0.0000477015938622406
276,0.0657248497009277,0.000068372529330959
277,0.0648055076599121,0.000052493252639711
278,0.0638608932495117,0.000036269414101648
279,0.0629715919494629,0.000044339446148096
280,0.0620532035827637,0.000047103209285303
281,0.0612087249755859,0.0000422357688540161
282,0.0603632926940918,0.000044639700845598
283,0.0594916343688965,0.0000517197989627947
284,0.0586309432983398,0.0000349167244701821
285,0.0577769279479981,0.0000232571183118205
286,0.0569720268249512,0.0000291168537208181
287,0.0561714172363281,0.0000354811386163172
288,0.0553860664367676,0.000038897317128796
289,0.0544352531433106,0.0000474123385024354
290,0.0536746978759766,0.000038781696966973
291,0.052879810333252,0.0000356194484653151
292,0.0520815849304199,0.0000443881356282659
293,0.0513734817504883,0.0000446766136796245
294,0.0505304336547852,0.0000357317790073851
295,0.049891471862793,0.0000424706412394628
296,0.0492596626281738,0.0000404827445855139
297,0.0484533309936523,0.0000283206751354201
298,0.0477895736694336,0.0000317168406935451
299,0.0470528602600098,0.0000377537909081295
300,0.0464048385620117,0.0000372238522744632
301,0.0457239151000977,0.0000509245565053618
302,0.0451545715332031,0.0000525992669415958
303,0.0444254875183106,0.0000502921938836487
304,0.0437850952148438,0.000047028329132942
305,0.0431609153747559,0.0000559974138513344
306,0.0425906181335449,0.0000394976914595635
307,0.0419707298278809,0.000038077619212375
308,0.0413312911987305,0.000058806801618978
309,0.0408287048339844,0.0000670732103176804
310,0.0402030944824219,0.0000495325715551918
311,0.0396432876586914,0.0000419291456927883
312,0.0390558242797852,0.0000389878168631801
313,0.0384840965270996,0.0000442547528908509
314,0.0379776954650879,0.0000472141029147589
315,0.0375261306762695,0.0000409726334181273
316,0.036956787109375,0.0000512150634082701
317,0.0363836288452148,0.0000655091653916882
318,0.035923957824707,0.000049925784090452
319,0.0354099273681641,0.0000381827186950066
320,0.0349206924438477,0.0000602119029340739
321,0.0344514846801758,0.0000466350641214796
322,0.0340423583984375,0.0000517593501785898
323,0.0334262847900391,0.0000407814265202864
324,0.0329098701477051,0.0000362082395678895
325,0.0325984954833984,0.0000368377922582783
326,0.0320396423339844,0.0000335543975862483
327,0.0316333770751953,0.0000348042131921384
328,0.0311522483825684,0.0000567406164703772
329,0.0307183265686035,0.0000668354937720799
330,0.0301928520202637,0.0000481357605071765
331,0.0297813415527344,0.0000448201564314646
332,0.0292305946350098,0.0000366878088089909
333,0.0288510322570801,0.0000390351724215844
334,0.0283756256103516,0.0000436781275217521
335,0.027925968170166,0.0000464016704398633
336,0.0276021957397461,0.0000521314094930804
337,0.0271549224853516,0.0000420455743993483
338,0.0266389846801758,0.0000399904081778365
339,0.0262761116027832,0.0000475201184517091
340,0.0259127616882324,0.0000411581185851703
341,0.025484561920166,0.0000375333245213824
342,0.0250892639160156,0.0000454573642265815
343,0.0247254371643066,0.0000563404845206823
344,0.024406909942627,0.0000418273444734177
345,0.0239272117614746,0.0000454648664735136
346,0.023526668548584,0.0000353993385360025
347,0.0232195854187012,0.0000394263887791877
348,0.0227789878845215,0.00002838783452801
349,0.0224699974060059,0.0000312291936718655
350,0.0221443176269531,0.0000378627920744044
351,0.0217452049255371,0.0000535205900867492
352,0.0215492248535156,0.0000517593501785898
353,0.0210709571838379,0.0000621847577647694
354,0.020782470703125,0.000049018071313
355,0.0205473899841309,0.0000552802152488306
356,0.0200872421264648,0.0000445912860517732
357,0.0197434425354004,0.0000533280062031783
358,0.0194778442382812,0.0000556522283475692
359,0.0191612243652344,0.0000497032693460975
360,0.0188407897949219,0.0000354851435759336
361,0.0185065269470215,0.0000465496630167609
362,0.0182323455810547,0.0000540342980556474
363,0.0179595947265625,0.0000618051595536028
364,0.0174226760864258,0.0000499747181189495
365,0.0173211097717285,0.0000452832142408728
366,0.017021656036377,0.0000613194787225457
367,0.0167040824890137,0.0000637697278126715
368,0.0164279937744141,0.0000583380593955121
369,0.0161237716674805,0.0000585627085571355
370,0.015894889831543,0.0000549512156073352
371,0.0157022476196289,0.0000645282427964059
372,0.0153689384460449,0.0000776849541006125
373,0.0151190757751465,0.000090812131394027
374,0.0149369239807129,0.0000645176710393304
375,0.014681339263916,0.0000696410834005628
376,0.0144696235656738,0.0000533301380017122
377,0.0141110420227051,0.000073829730606312
378,0.0139899253845215,0.0000886096369499711
379,0.0136580467224121,0.0000803778303641246
380,0.0134181976318359,0.000106934918924508
381,0.0132322311401367,0.0000967991175838685
382,0.0131282806396484,0.0000746215874369123
383,0.0128817558288574,0.0000622450594790677
384,0.0126948356628418,0.0000531004797452106
385,0.0125250816345215,0.000059304435009162
386,0.0122251510620117,0.0000612415608589144
387,0.0121293067932129,0.0000723803623636101
388,0.011836051940918,0.0000625202435579437
389,0.0116572380065918,0.0000905990600585938
390,0.0114607810974121,0.0000962904135271218
391,0.0112452507019043,0.000079765892209189
392,0.0111503601074219,0.0000809121142786232
393,0.0108857154846191,0.0000669884083894193
394,0.0106492042541504,0.0000614768674642536
395,0.0104207992553711,0.000064633865263641
396,0.010284423828125,0.0000719881991072297
397,0.0102992057800293,0.0000880975200421629
398,0.010037899017334,0.0000518493264334558
399,0.0098261833190918,0.0000618364221145502
400,0.00974130630493164,0.0000771725254276713
401,0.00958776473999023,0.000101663650293247
402,0.00940275192260742,0.0000682227171572854
403,0.00922393798828125,0.0000549967118797442
404,0.00910663604736328,0.0000560633570390636
405,0.00895500183105469,0.0000637358461579415
406,0.00882577896118164,0.0000705928384801838
407,0.00870275497436523,0.0000618143560657515
408,0.00851345062255859,0.000075542203477753
409,0.00843524932861328,0.0000795075023169055
410,0.00820255279541016,0.00006261291330063
411,0.00815296173095703,0.00005364788890311
412,0.00793075561523438,0.0000541593399152484
413,0.00789833068847656,0.0000463465113240707
414,0.00776433944702148,0.0000517055091442055
415,0.0077214241027832,0.000061961314623392
416,0.00759124755859375,0.0000566212753631493
417,0.00748538970947266,0.0000503125345089025
418,0.00737762451171875,0.0000669646446051304
419,0.00723123550415039,0.0000715573558132327
420,0.0070805549621582,0.0000728000892918841
421,0.00708246231079102,0.0000559953835986697
422,0.00683116912841797,0.0000519019230839638
423,0.00672769546508789,0.0000625747717918963
424,0.00666475296020508,0.0000633655405930703
425,0.00664615631103516,0.0000518219112023091
426,0.00648641586303711,0.0000639228622747005
427,0.00648689270019531,0.0000600795896928508
428,0.00635480880737305,0.0000454173313132883
429,0.0063018798828125,0.0000393874420031204
430,0.00627374649047852,0.0000331650441723908
431,0.00606060028076172,0.0000361878250757806
432,0.00593280792236328,0.0000517373810136873
433,0.00595998764038086,0.0000547034271550547
434,0.00591754913330078,0.0000653388715094019
435,0.00578927993774414,0.000070088574375222
436,0.00570344924926758,0.0000564433012276288
437,0.00567197799682617,0.000062305302830837
438,0.00564718246459961,0.000058670350881302
439,0.0054478645324707,0.0000471454278196233
440,0.00539493560791016,0.0000514951016103153
441,0.00551223754882813,0.0000593982939304879
442,0.00521564483642578,0.0000566353285456849
443,0.00519037246704102,0.0000485051451564558
444,0.00513505935668945,0.0000533610395098858
445,0.00498723983764648,0.0000448505842397429
446,0.00498294830322266,0.0000518153293884511
447,0.00482320785522461,0.0000774621926809905
448,0.00479841232299805,0.000062319898509592
449,0.004852294921875,0.0000621938981463637
450,0.00479030609130859,0.0000475045653466493
451,0.00474739074707031,0.0000612044222497627
452,0.00476360321044922,0.000089668210147318
453,0.00457191467285156,0.0000730432973945963
454,0.00449943542480469,0.0000664260005242778
455,0.00454187393188477,0.0000604361706457324
456,0.00456142425537109,0.0000620273323799672
457,0.0044398307800293,0.0000552184841126026
458,0.00436925888061523,0.0000556205558052112
459,0.00440740585327148,0.0000648866577054353
460,0.00431442260742188,0.0000628792560570047
461,0.00430774688720703,0.0000736014797231347
462,0.00417757034301758,0.0000591672104629052
463,0.00417613983154297,0.0000581047159860439
464,0.00417709350585938,0.0000453032943767706
465,0.00407791137695313,0.0000417858743733746
466,0.00399494171142578,0.0000444060604003714
467,0.00400924682617188,0.0000541068365196981
468,0.00397682189941406,0.0000583331872937326
469,0.00387477874755859,0.0000846718333355346
470,0.00386810302734375,0.0000809753175506705
471,0.00384187698364258,0.0000678835936011639
472,0.00385475158691406,0.0000597199278814435
473,0.00367164611816406,0.000067283057882908
474,0.0037379264831543,0.0000626092817770762
475,0.00368452072143555,0.0000604587397025889
476,0.00370025634765625,0.0000559963987342034
477,0.00370407104492187,0.0000568517088259055
478,0.00368261337280273,0.0000730215041122766
479,0.00366544723510742,0.000078330572778677
480,0.00354909896850586,0.000077315289092149
481,0.00353527069091797,0.000061388038711105
482,0.00348281860351562,0.0000853058877367831
483,0.00342988967895508,0.0000769157699133114
484,0.0033717155456543,0.0000640081733672474
485,0.00410604476928711,0.000050453562643531
486,0.0033116340637207,0.0000445032403308823
487,0.00316381454467773,0.0000480885013916569
488,0.00323677062988281,0.0000650633774822833
489,0.00323057174682617,0.0000591201161950259
490,0.00321531295776367,0.0000645000475936632
491,0.00330734252929687,0.0000581555649562478
492,0.0032505989074707,0.000053623513373266
493,0.00319862365722656,0.0000525343856205624
494,0.00308322906494141,0.0000581741333007813
495,0.00307559967041016,0.0000709831011426102
496,0.00313138961791992,0.0000764502473983458
497,0.00300121307373047,0.0000611988495145204
498,0.00299358367919922,0.0000546285592908363
499,0.0029754638671875,0.0000629027559019724
500,0.00292682647705078,0.0000563566250358269
501,0.00302791595458984,0.0000568377091436437
502,0.00294589996337891,0.0000497261371960979
503,0.00296211242675781,0.0000512705281989488
504,0.00282430648803711,0.0000696133259133738
505,0.00281763076782227,0.0000638303132552808
506,0.00275707244873047,0.00006103515625
507,0.00271272659301758,0.0000565368829117856
508,0.00269889831542969,0.0000593896804193552
509,0.00271415710449219,0.0000465325639874475
510,0.00274515151977539,0.0000400046199157946
511,0.00270652770996094,0.0000568747008228891
512,0.00264310836791992,0.000087823515178939
513,0.00260257720947266,0.0000576923699285768
514,0.00269889831542969,0.0000421205406668134
515,0.00261116027832031,0.0000538773238714213
516,0.00256919860839844,0.0000689157553296649
517,0.00252532958984375,0.0000689800616555285
518,0.00257253646850586,0.0000701793501236357
519,0.00255823135375977,0.0000563969561141171
520,0.00253820419311523,0.0000573256638093362
521,0.00253200531005859,0.0000595703026066053
522,0.0023646354675293,0.0000680124257266061
523,0.00247621536254883,0.0000584519506436503
524,0.00240182876586914,0.0000573801752110929
525,0.00236606597900391,0.0000547491293389048
526,0.00241518020629883,0.0000692580324377644
527,0.00236654281616211,0.0000708291802506529
528,0.00234889984130859,0.0000589381143792706
529,0.00239849090576172,0.0000442213443446659
530,0.0023651123046875,0.0000548435289309577
531,0.00223398208618164,0.0000748892454126944
532,0.0022578239440918,0.0000623527262948768
533,0.00230503082275391,0.0000502594055609155
534,0.00224590301513672,0.0000457602214154876
535,0.00225257873535156,0.0000445491989389961
536,0.00221061706542969,0.000051593251675136
537,0.0023045539855957,0.0000582932206993155
538,0.00219964981079102,0.0000444508407074792
539,0.00213909149169922,0.0000459733836048921
540,0.00216579437255859,0.00004815819234067
541,0.00217437744140625,0.0000529804494445517
542,0.00219154357910156,0.0000519073988367969
543,0.00217533111572266,0.0000471454278196233
544,0.0021204948425293,0.0000614842640674765
545,0.00209856033325195,0.0000548507837087571
546,0.00216102600097656,0.0000634569759136034
547,0.00210285186767578,0.0000413462087599328
548,0.00204753875732422,0.0000483161000679449
549,0.00200986862182617,0.0000435764988321016
550,0.00201511383056641,0.0000502152771640807
551,0.00196313858032227,0.0000452103489855689
552,0.00201797485351562,0.0000506806346116983
553,0.00207042694091797,0.0000569186596341911
554,0.0018916130065918,0.0000595044247164842
555,0.00195074081420898,0.0000598710781042279
556,0.00192546844482422,0.0000641979379815584
557,0.00189113616943359,0.0000453847785699153
558,0.00192642211914062,0.0000385073684429751
559,0.00187349319458008,0.0000402920344815781
560,0.00186491012573242,0.0000532052841291938
561,0.00184154510498047,0.0000568367090343883
562,0.00178718566894531,0.0000381484627432667
563,0.00187110900878906,0.0000479215413147015
564,0.00185060501098633,0.0000566072186918017
565,0.00174283981323242,0.0000475081549766694
566,0.00177717208862305,0.0000458272512074575
567,0.00176334381103516,0.0000587061877959282
568,0.00180721282958984,0.0000492852206524436
569,0.0018010139465332,0.0000426169458786253
570,0.00183868408203125,0.0000361390978269509
571,0.00182342529296875,0.0000351382398687756
572,0.00163459777832031,0.0000562182718398647
573,0.00180292129516602,0.0000441943420819607
574,0.00180149078369141,0.0000424960635495556
575,0.00168466567993164,0.0000422505707169124
576,0.00179433822631836,0.0000397129784364396
577,0.00177288055419922,0.0000306782738445043
578,0.00172090530395508,0.0000403491308406067
579,0.00168466567993164,0.0000403765928840953
580,0.00173616409301758,0.0000459276124688282
581,0.00175857543945312,0.0000375212067359997
582,0.00165462493896484,0.0000385405679544525
583,0.00153875350952148,0.0000437678331153055
584,0.00164985656738281,0.0000308897010182605
585,0.00172948837280273,0.0000404637842628036
586,0.00156307220458984,0.000044321494435452
587,0.00162458419799805,0.0000410246260876416
588,0.00152873992919922,0.0000365605387612368
589,0.00149345397949219,0.0000515987601847421
590,0.00151586532592773,0.0000557512165186463
591,0.00151538848876953,0.0000439816046073048
592,0.00164508819580078,0.0000342419216873394
593,0.00153875350952148,0.0000294762897476506
594,0.00147581100463867,0.0000322905378116222
595,0.00151634216308594,0.0000329155823811003
596,0.00146818161010742,0.0000434628634075388
597,0.0015263557434082,0.0000431550800269986
598,0.00149059295654297,0.0000341405082525271
599,0.0015106201171875,0.0000337697004604058
600,0.00148439407348633,0.0000552678745376044
601,0.00142717361450195,0.0000521760962135135
602,0.00143623352050781,0.0000399271046026551
603,0.00147581100463867,0.0000583400081222975
604,0.00137090682983398,0.000044839176231358
605,0.00144433975219727,0.0000299791810363164
606,0.00144004821777344,0.0000414279295362968
607,0.0013890266418457,0.0000328386433825819
608,0.00137519836425781,0.0000303630530216251
609,0.00139427185058594,0.0000370424525089936
610,0.00139236450195312,0.0000315587316262903
611,0.00134611129760742,0.0000349663423348385
612,0.00134706497192383,0.0000309025797768014
613,0.00135278701782227,0.000034953334627405
614,0.00141382217407227,0.0000415464469856003
615,0.001373291015625,0.0000406949157154893
616,0.00125837326049805,0.0000258423084589245
617,0.00137996673583984,0.0000361705422754533
618,0.00126123428344727,0.0000334015835250528
619,0.00124645233154297,0.0000308160048593042
620,0.00128936767578125,0.0000428954714221018
621,0.00123119354248047,0.0000466387206742175
622,0.00130414962768555,0.0000355755354272552
623,0.0013117790222168,0.0000388314997408116
624,0.00129985809326172,0.0000446167740710318
625,0.00127649307250977,0.0000488170410033271
626,0.00131368637084961,0.0000315010406661927
627,0.00124931335449219,0.0000371848916065269
628,0.00122928619384766,0.0000416523467172106
629,0.00131416320800781,0.0000420813857634317
630,0.00126504898071289,0.0000416919045540576
631,0.00121450424194336,0.0000421872900828188
632,0.00124883651733398,0.0000519719691509556
633,0.00121307373046875,0.000051023804090101
634,0.00118494033813477,0.0000320245056649857
635,0.00116777420043945,0.000027943328777751
636,0.00115394592285156,0.000058321492588865
637,0.00112199783325195,0.0000483678379363334
638,0.00124216079711914,0.0000432425844144998
639,0.0011906623840332,0.0000490899164715636
640,0.00117683410644531,0.000054729398986755
641,0.00114679336547852,0.0000548238325519485
642,0.00112342834472656,0.0000465618727646475
643,0.00110769271850586,0.0000442830019743485
644,0.00112485885620117,0.0000545629656398546
645,0.00107574462890625,0.0000390366286046905
646,0.00109100341796875,0.000052116141837315
647,0.00110435485839844,0.0000525538584274165
648,0.00113821029663086,0.0000524325767990104
649,0.00105094909667969,0.0000380402801506454
650,0.00113582611083984,0.0000365721977162272
651,0.00113534927368164,0.0000506503423485566
652,0.00106334686279297,0.0000425628918084046
653,0.00112295150756836,0.0000440629528584928
654,0.00111865997314453,0.000050203955942617
655,0.00163698196411133,0.0000240247388146603
656,0.00164461135864258,0.0000278373473524322
657,0.000208377838134766,0.0000339032560793856
658,0.00112104415893555,0.0000540668998402527
659,0.00102949142456055,0.0000593820229161264
660,0.00107955932617187,0.0000596132272263463
661,0.00108623504638672,0.0000383661352158466
662,0.00104236602783203,0.0000374855880871459
663,0.00106239318847656,0.0000513901278483829
664,0.0010828971862793,0.0000543709374691588
665,0.00099945068359375,0.0000493198092037236
666,0.00106143951416016,0.0000482501716355834
667,0.000990867614746094,0.0000558541002426757
668,0.00105428695678711,0.0000380141209852268
669,0.000950336456298828,0.0000311234429459054
670,0.00102472305297852,0.0000443073844158834
671,0.00102424621582031,0.0000414629034201209
672,0.00104808807373047,0.0000413592674473122
673,0.000952243804931641,0.0000486537494448217
674,0.000970363616943359,0.0000491651252783617
675,0.00099945068359375,0.0000377101022226251
676,0.00101327896118164,0.0000391986537425267
677,0.00103521347045898,0.0000417831535845728
678,0.00102329254150391,0.0000355859197630338
679,0.000994682312011719,0.0000420644974093265
680,0.000948905944824219,0.0000422108631064567
681,0.000985145568847656,0.0000490250286718191
682,0.000940322875976563,0.0000336313893333647
683,0.000975131988525391,0.0000442534684131375
684,0.000960350036621094,0.0000404722121695002
685,0.00101518630981445,0.0000397394497041789
686,0.000993728637695313,0.0000475416451202885
687,0.000955104827880859,0.0000444099004817011
688,0.000967979431152344,0.0000435725853025843
689,0.000974655151367188,0.0000631084566366795
690,0.000960826873779297,0.0000378507797669718
691,0.00101089477539062,0.0000337250643881655
692,0.000978946685791016,0.0000418660580969001
693,0.000886917114257813,0.0000376271050383383
694,0.000960826873779297,0.0000430898298171324
695,0.000930309295654297,0.0000466935346041093
696,0.000914096832275391,0.0000504963571285902
697,0.000920772552490234,0.0000345616493232169
698,0.000948905944824219,0.0000410253188780985
699,0.000916481018066406,0.000047521314633564
700,0.000932216644287109,0.0000531432820089274
701,0.000903129577636719,0.000036972564649544
702,0.000947952270507813,0.000044831569279699
703,0.000926971435546875,0.0000398722552497232
704,0.000880718231201172,0.0000580195420952032
705,0.000956535339355469,0.0000517999685705077
706,0.000825405120849609,0.0000514917899217295
707,0.000922679901123047,0.0000615895691446161
708,0.000866889953613281,0.000056817703613777
709,0.000927448272705078,0.0000401407965918523
710,0.000879764556884766,0.0000360256705618364
711,0.000880241394042969,0.0000383439047155451
712,0.000880241394042969,0.0000429815205986975
713,0.000895977020263672,0.0000388549142519218
714,0.000908851623535156,0.0000305082634777345
715,0.000833988189697266,0.0000338772582538746
716,0.000888347625732422,0.00004350077486524
717,0.000773906707763672,0.0000340078843820371
718,0.000896930694580078,0.0000222516201654412
719,0.000783920288085938,0.0000246454935482567
720,0.000748634338378906,0.0000302974578054621
721,0.000867843627929688,0.0000342659840073045
722,0.000786781311035156,0.0000422902410446855
723,0.000854969024658203,0.0000531390033339872
724,0.00081634521484375,0.0000470573291331078
725,0.000844001770019531,0.0000545619238350174
726,0.000780105590820313,0.0000397301509982756
727,0.000864982604980469,0.000040373777123927
728,0.000778675079345703,0.0000468842724945951
729,0.000782966613769531,0.0000538076453327628
730,0.000807285308837891,0.0000466167770555697
731,0.000715732574462891,0.000031939192145013
732,0.000795841217041016,0.0000377583075421546
733,0.000710487365722656,0.0000360863669920131
734,0.000805854797363281,0.0000316190140726097
735,0.000834465026855469,0.0000284443457009528
736,0.000803947448730469,0.0000347633583674072
737,0.000746726989746094,0.0000496506333207898
738,0.00077056884765625,0.0000447338319125009
739,0.00077056884765625,0.0000328022724154324
740,0.000783443450927734,0.0000429901160433588
741,0.000710010528564453,0.0000498186446453594
742,0.000751972198486328,0.0000414402766303975
743,0.000750064849853516,0.0000398537176410018
744,0.000781059265136719,0.0000416059206672342
745,0.000790119171142578,0.000046515458672551
746,0.000756263732910156,0.0000398101916757278
747,0.000725746154785156,0.0000507781200865713
748,0.000788211822509766,0.0000489844301482872
749,0.000751495361328125,0.0000306773473862969
750,0.000730514526367188,0.0000371772474720836
751,0.000767707824707031,0.0000483866379906577
752,0.000756740570068359,0.0000383001470900832
753,0.000827312469482422,0.000031298284892759
754,0.000751972198486328,0.0000386701411940954
755,0.000800132751464844,0.0000481085921882636
756,0.000820636749267578,0.0000486257015469615
757,0.000828742980957031,0.0000444853547161329
758,0.000802040100097656,0.0000474219288617754
759,0.000782966613769531,0.0000369994602180199
760,0.000802516937255859,0.000031567736314928
761,0.000842571258544922,0.00005046595425274
762,0.000815868377685547,0.0000502514879329213
763,0.000826358795166016,0.0000465350070905909
764,0.000824451446533203,0.0000454511114081876
765,0.000773906707763672,0.0000481994868109736
766,0.000839710235595703,0.000052492169757582
767,0.000838279724121094,0.0000550875916999745
768,0.000817775726318359,0.0000443420100851929
769,0.000828266143798828,0.0000488449790298433
770,0.000813007354736328,0.0000360580021576801
771,0.000786304473876953,0.0000342327901760055
772,0.000725746154785156,0.0000339627245008924
773,0.000853538513183594,0.0000345797362505262
774,0.000866889953613281,0.0000550411378116916
775,0.00083160400390625,0.0000360840041074389
776,0.00077056884765625,0.0000413049436954984
777,0.000767230987548828,0.0000453835260750255
778,0.000796794891357422,0.0000608037495776943
779,0.000766754150390625,0.0000498140804085523
780,0.000792980194091797,0.0000338369641471335
781,0.000762462615966797,0.0000456657165095173
782,0.000872611999511719,0.0000457800923262283
783,0.000762939453125,0.0000423124133138256
784,0.000780105590820313,0.0000554178331786054
785,0.000764846801757813,0.0000510761379236716
786,0.000776290893554688,0.0000371825985312024
787,0.000842094421386719,0.0000339643981598561
788,0.000849723815917969,0.0000424652872348731
789,0.000730037689208984,0.0000411173559918212
790,0.000850677490234375,0.0000504152420498223
791,0.000820636749267578,0.0000614546723131129
792,0.000763416290283203,0.0000465521052225294
793,0.000792980194091797,0.0000481499291968007
794,0.000815868377685547,0.0000440526312484054
795,0.000825405120849609,0.000048324334797695
796,0.000761032104492188,0.000050228859261565
797,0.000813484191894531,0.0000479547427626595
798,0.000785350799560547,0.0000407626051267614
799,0.000802040100097656,0.0000432583558274907
800,0.000777244567871094,0.0000417007658177861
801,0.000782966613769531,0.0000447668580018371
802,0.00083160400390625,0.0000557063364658746
803,0.000844478607177734,0.0000546753637197769
804,0.000776767730712891,0.0000475488185107661
805,0.000783920288085938,0.0000554742193301215
806,0.000669956207275391,0.0000542997986765155
807,0.000719547271728516,0.0000572035685088026
808,0.000730037689208984,0.0000712915406425094
809,0.000763416290283203,0.0000376542878918874
810,0.000721454620361328,0.0000401032523597381
811,0.000685214996337891,0.0000519249173654214
812,0.000782966613769531,0.0000456632268970575
813,0.000714778900146484,0.0000556287310908885
814,0.000694751739501953,0.0000448581879668874
815,0.000807762145996094,0.0000415430263706557
816,0.000771522521972656,0.0000450024146815798
817,0.000723361968994141,0.0000518734398515553
818,0.000743865966796875,0.0000554649964278997
819,0.000749588012695313,0.0000500429181936042
820,0.000708103179931641,0.0000476169118225858
821,0.000797748565673828,0.0000383979764885031
822,0.000722408294677734,0.0000458904672231087
823,0.000742912292480469,0.0000501416435332303
824,0.000780105590820313,0.0000514531378054174
825,0.0008087158203125,0.0000488391599255887
826,0.000757217407226563,0.0000407849110103703
827,0.000772476196289063,0.0000337587574525536
828,0.000697135925292969,0.0000371022516102755
829,0.000710487365722656,0.0000325517767715423
830,0.000657081604003906,0.0000352141900723065
831,0.000742435455322266,0.0000531090429576103
832,0.000644683837890625,0.0000489275356205896
833,0.000715732574462891,0.0000539679821337622
834,0.00067901611328125,0.0000407179567011065
835,0.000672340393066406,0.0000449834639018278
836,0.000694751739501953,0.0000377455090087191
837,0.000662803649902344,0.0000477444738494009
838,0.000629425048828125,0.0000497958192777884
839,0.000687122344970703,0.0000379355352578434
840,0.000727176666259766,0.0000521008697075109
841,0.000657558441162109,0.0000393289495234928
842,0.000675678253173828,0.0000410993799815492
843,0.000691890716552734,0.0000359308743167582
844,0.000713348388671875,0.0000343405528156773
845,0.000699996948242188,0.000045348442173313
846,0.000697135925292969,0.0000622395799192632
847,0.00078582763671875,0.0000479239136095132
848,0.000673770904541016,0.0000414011648668103
849,0.000715732574462891,0.0000453471886748075
850,0.000738143920898438,0.0000454411051091158
851,0.000725269317626953,0.0000599886919447327
852,0.000755786895751953,0.0000556746947048645
853,0.000715255737304688,0.0000447465371392368
854,0.000675678253173828,0.0000456918492503833
855,0.000745296478271484,0.0000629334732280498
856,0.000716686248779297,0.0000472417856490739
857,0.000647544860839844,0.0000479618543684372
858,0.000681400299072266,0.0000482277825837612
859,0.000675678253173828,0.0000352464596690641
860,0.000742435455322266,0.0000425014136771797
861,0.000789642333984375,0.0000397723353608833
862,0.000700950622558594,0.0000649181875466368
863,0.0006866455078125,0.0000519303906936435
864,0.000768661499023438,0.0000504152420498223
865,0.000679969787597656,0.0000473991485899755
866,0.000720500946044922,0.0000639388667749853
867,0.000744819641113281,0.0000560704539874038
868,0.000762462615966797,0.0000595292568290626
869,0.000745296478271484,0.000043237325998427
870,0.000782489776611328,0.0000415272879128796
871,0.000732898712158203,0.0000513237180064913
872,0.000766754150390625,0.0000593513830235174
873,0.000710010528564453,0.0000746840252818361
874,0.0008087158203125,0.0000464090200352907
875,0.000785350799560547,0.0000394912147175182
876,0.000707149505615234,0.0000660019109406454
877,0.000782489776611328,0.0000582590811820685
878,0.000776290893554688,0.0000508284702428051
879,0.000768184661865234,0.0000583770215713611
880,0.000732421875,0.0000438495779499152
881,0.000793933868408203,0.0000422593148353118
882,0.000829696655273438,0.0000543468862402216
883,0.000813961029052734,0.0000428523820376231
884,0.000750064849853516,0.0000635697438539166
885,0.000809669494628906,0.0000614287678344266
886,0.000758171081542969,0.0000665781480875355
887,0.000828742980957031,0.0000472814760446188
888,0.000743389129638672,0.0000449430088645604
889,0.000758647918701172,0.0000479725198003886
890,0.000810623168945313,0.0000466874473454755
891,0.000778675079345703,0.0000479215413147015
892,0.000844955444335938,0.0000427899914106732
893,0.000921726226806641,0.0000449847275355177
894,0.000720977783203125,0.0000518087467384355
895,0.000768661499023438,0.000058593760865429
896,0.000682353973388672,0.0000680876043682847
897,0.000808238983154297,0.0000567125588029868
898,0.000784397125244141,0.0000497935361655579
899,0.000810623168945313,0.0000503498043129694
900,0.000845909118652344,0.0000506783913612994
901,0.000846385955810547,0.0000690311342072493
902,0.000829219818115234,0.0000652587843975946
903,0.000788688659667969,0.000044398379241309
904,0.000739574432373047,0.0000650860887377853
905,0.000784873962402344,0.0000576085598393973
906,0.000750064849853516,0.0000653562687649514
907,0.000819206237792969,0.0000551618365504545
908,0.000791072845458984,0.0000481487486319135
909,0.000756740570068359,0.0000603655879578006
910,0.000708580017089844,0.0000651192678630241
911,0.000764369964599609,0.0000583273402343992
912,0.000650405883789063,0.0000655351917327417
913,0.000612735748291016,0.0000663266603446582
914,0.000681400299072266,0.0000673286637867686
915,0.000798225402832031,0.0000661172162456314
916,0.000730037689208984,0.0000850963971946877
917,0.000829219818115234,0.0000825314073262591
918,0.000744819641113281,0.0000588435214487309
919,0.000710487365722656,0.0000681843790159283
920,0.00067901611328125,0.0000569655781672214
921,0.000648021697998047,0.0000739220639723161
922,0.00063323974609375,0.000070806705498302
923,0.000594139099121094,0.0000632398258803027
924,0.000647068023681641,0.0000751741001240859
925,0.000597000122070313,0.000072901524605526
926,0.000523567199707031,0.0000679438572096399
927,0.000654220581054688,0.0000794717470726966
928,0.000673770904541016,0.0000531582546591636
929,0.00057220458984375,0.000031515473306852
930,0.000476837158203125,0.0000410128468593704
931,0.000509738922119141,0.0000755166150843091
932,0.000469684600830078,0.0000733988546637612
933,0.000400066375732422,0.0000880846144387591
934,0.000424861907958984,0.0000677041601154284
935,0.000370979309082031,0.0000628521299332864
936,0.000397682189941406,0.0000708195490872881
937,0.000429153442382813,0.0000760626266418209
938,0.000294208526611328,0.0000830025443340741
939,0.000210762023925781,0.0000903276091214914
940,0.000288486480712891,0.0000783291213927501
941,0.000301837921142578,0.0000681793767994504
942,0.000146389007568359,0.0000791822524328977
943,0.0000338554382324219,0.000109767872390275
944,0.000208854675292969,0.0000809500421635094
945,0.000146865844726562,0.000103917685412546
946,0.0000939369201660156,0.000102167855474449
947,0.0000653266906738281,0.0000866690068129468
948,-0.0000238418579101562,0.000103762219904876
949,-0.0000457763671875,0.0000994545606250989
950,-0.000115394592285156,0.000106299398751013
951,-0.000133514404296875,0.0000647076984082043
952,-0.000229835510253906,0.0000759130147215134
953,-0.000230789184570312,0.0000836288639343999
954,-0.000325679779052734,0.00012323450219076
955,-0.000361919403076172,0.000107374156979343
956,-0.000507831573486328,0.000108438263538394
957,-0.000450611114501953,0.0000741891808921915
958,-0.000577926635742188,0.000105425234185256
959,-0.0006256103515625,0.000102045380042161
960,-0.000607013702392578,0.0000931481586233122
961,-0.000727176666259766,0.000146543471018884
962,-0.000578403472900391,0.000125490640133829
963,-0.000446796417236328,0.000130938476480832
964,-0.000722408294677734,0.000135236936367073
965,-0.0006103515625,0.000137375452908401
966,-0.000363349914550781,0.000159662854152096
967,-0.000777244567871094,0.000151391104377628
968,-0.000663280487060547,0.000129612023502636
969,-0.000815868377685547,0.00014353986545195
970,-0.000498294830322266,0.000124021669059821
971,-0.000542640686035156,0.000111073379481988
972,-0.000611305236816406,0.000149444143066017
973,-0.000579357147216797,0.000160554689537086
974,-0.000260353088378906,0.00014578121516961
975,-0.0004119873046875,0.000113232511048037
976,-0.000505447387695313,0.000126677245462954
977,-0.000397682189941406,0.000147656381477065
978,-0.000105857849121094,0.000141789916364636
979,-0.0000472068786621094,0.000151867956272084
980,-0.0000820159912109375,0.000154058994341344
981,-0.000336647033691406,0.000159762509089446
982,-0.0000247955322265625,0.000183858910786223
983,0.000160694122314453,0.00016793335497326
984,-0.0000290870666503906,0.000116072390191265
985,0.0000581741333007813,0.000178212106732148
986,0.0000386238098144531,0.000121234851127889
987,0.0003662109375,0.000110129771612825
988,0.0000796318054199219,0.00012686736277418
989,0.000537395477294922,0.000156814915574178
990,0.000460624694824219,0.000201701554281831
991,-0.000011444091796875,0.000301988166549908
992,0.000339031219482422,0.000206870403144634
993,0.000602245330810547,0.000171292756921875
994,0.0007476806640625,0.000134772099075095
995,0.000520229339599609,0.000123440974694401
996,0.000661849975585938,0.000122668617995122
997,0.000525951385498047,0.000147267819493864
998,0.000737190246582031,0.000237505116562487
999,0.000353336334228516,0.000183616362546268
1000,0.000617027282714844,0.000172417353599195
1001,0.000955581665039063,0.000164549587560959
1002,0.00105905532836914,0.000217650961487756
1003,0.000566005706787109,0.000191747836529835
1004,0.00113248825073242,0.000196021254359069
1005,0.00107431411743164,0.000224707202494779
1006,0.000929832458496094,0.000217433561318303
1007,0.000670909881591797,0.000265073428845989
1008,0.00132656097412109,0.000186720566349193
1009,0.000795841217041016,0.000220478281969811
1010,0.00100374221801758,0.000309607983727906
1011,0.00138711929321289,0.000240469692765477
1012,0.000836372375488281,0.000244884549647583
1013,0.000909805297851563,0.000204855813999033
1014,0.000972747802734375,0.000235737025661497
1015,0.00108432769775391,0.000317285596190312
1016,0.000946521759033203,0.000304507477470018
1017,0.000953197479248047,0.00026264682396723
1018,0.00104045867919922,0.00020735344832342
1019,0.00118350982666016,0.000330549626368254
1020,0.0014042854309082,0.000260120679364596
1021,0.000849246978759766,0.000294862774033422
1022,0.00114297866821289,0.000317543475127676
1023,0.00114297866821289,0.000271158974902419
1024,0.0014042854309082,0.000237838038319082
1025,0.00144863128662109,0.000248578096457537
1026,0.00114059448242187,0.000204509225600533
1027,0.00143623352050781,0.000275194122079721
1028,0.00121068954467773,0.000266947052565321
1029,0.00122261047363281,0.000295940368658833
1030,0.001220703125,0.000306792743879442
1031,0.00103092193603516,0.000363298597741978
1032,0.00129127502441406,0.000336023731655527
1033,0.0014033317565918,0.000320281264552838
1034,0.00133848190307617,0.000396095284034836
1035,0.00119638442993164,0.000348507618931874
1036,0.00107622146606445,0.000361209734001642
1037,0.00127458572387695,0.000345593466716055
1038,0.00102901458740234,0.000325872062900469
1039,0.00135326385498047,0.000360725970747958
1040,0.0011286735534668,0.00030232528764457
1041,0.00117301940917969,0.000293086942037767
1042,0.000627994537353516,0.000316470467120132
1043,0.00168037414550781,0.000492790382750096
1044,0.00107860565185547,0.000357789321059116
1045,0.00143766403198242,0.000452287019847759
1046,0.001708984375,0.000430418903827816
1047,0.00145339965820312,0.000327264565880237
1048,0.000759124755859375,0.000342617369916396
1049,0.00155973434448242,0.000433568496226424
1050,0.00125026702880859,0.000530146857691977
1051,0.000594139099121094,0.000528387211778868
1052,0.00195121765136719,0.000484413985156322
1053,0.000751495361328125,0.000445960789112776
1054,0.000441551208496094,0.000589058926271734
1055,0.00107860565185547,0.00045645048612324
1056,0.00116539001464844,0.000406547233619651
1057,0.000225543975830078,0.000629656200157558
1058,0.00121784210205078,0.000577482676180406
1059,0.0000596046447753906,0.000742152269681691
1060,0.000405788421630859,0.000545661742737764
1061,0.00125885009765625,0.000627711883461265
1062,0.00171327590942383,0.000841034776582072
1063,0.00100517272949219,0.000903028363655994
1064,0.000348091125488281,0.000885256371176434
1065,0.000276088714599609,0.000750633171157766
1066,0.00109672546386719,0.000871973377278325
1067,0.000812530517578125,0.000986584261882888
1068,0.000756263732910156,0.000968136798112286
1069,0.00093841552734375,0.0010233916370657
1070,0.000911235809326172,0.000953964189344446
1071,0.0011754035949707,0.000941805415587463
1072,0.000848293304443359,0.000960288950275701
1073,0.00136470794677734,0.000739736588420167
1074,0.00112342834472656,0.0005968751868028
1075,0.00258445739746094,0.000897029935101262
1076,0.000144004821777344,0.00103160586683138
1077,-0.000672817230224609,0.000921042045811631
1078,0.000329971313476562,0.00122512968469247
1079,0.000586032867431641,0.00135811794739115
1080,-0.000942707061767578,0.00113198208790999
1081,0.00106143951416016,0.00120963803678735
1082,0.00349712371826172,0.00142377666751932
1083,0.00117969512939453,0.00106429370071239
1084,0.00196981430053711,0.00133542739041358
1085,-0.00183582305908203,0.00161789941321413
1086,0.00137805938720703,0.00127374335430693
1087,0.00178813934326172,0.00138536024038473
1088,0.00227737426757812,0.00154219487255155
1089,-0.0000329017639160156,0.00185160234062372
1090,0.00120067596435547,0.00118869296652854
1091,-0.00119113922119141,0.00195234998585231
1092,-0.000286579132080078,0.00232985270481769
1093,0.000412940979003906,0.00206309888193377
1094,-0.00234222412109375,0.00198035334264009
1095,0.00148582458496094,0.00116402660224915
1096,0.000732898712158203,0.00178563693104671
1097,-0.000300407409667969,0.00247822652683361
1098,0.00177383422851562,0.00330985610641941
1099,0.00167226791381836,0.00284665377623084
1100,0.000391960144042969,0.00248825892463861
