Wavelength (nm),Absorbance (AU),Std.Dev.
190,0.238017559051514,0.0000790083342794828
191,0.233391284942627,0.0000770958834812957
192,0.22905969619751,0.0000589236457122109
193,0.225466251373291,0.0000446460673046697
194,0.222168445587158,0.0000344957987359643
195,0.219093322753906,0.0000524824228129696
196,0.216372013092041,0.0000320182925708832
197,0.213850021362305,0.0000251980354130084
198,0.2110915184021,0.0000338772582538746
199,0.208069801330566,0.0000290249528720824
200,0.205148220062256,0.0000355379667433216
201,0.202315807342529,0.000040489764674107
202,0.199594020843506,0.0000363914546647851
203,0.197172164916992,0.0000430046582667086
204,0.194809436798096,0.0000417171201288212
205,0.19227933883667,0.0000462642636792683
206,0.189723014831543,0.0000428802293591179
207,0.187158107757568,0.0000294893038819514
208,0.184498310089111,0.0000295807229160115
209,0.18172025680542,0.0000474039453464104
210,0.178969860076904,0.0000426249480591825
211,0.176213264465332,0.0000319889860160066
212,0.173513889312744,0.0000522131244857493
213,0.170674324035645,0.0000464322860793298
214,0.16807222366333,0.000048805395438858
215,0.165389537811279,0.0000379490186544866
216,0.1628098487854,0.0000303129323207927
217,0.160293102264404,0.0000244143418951737
218,0.157935619354248,0.0000312255530570627
219,0.155591011047363,0.0000301205807833768
220,0.153316497802734,0.0000248904885882931
221,0.151132106781006,0.0000346683897577162
222,0.149029731750488,0.0000383439047155451
223,0.146880626678467,0.0000312237325904786
224,0.144834518432617,0.0000310319892839784
225,0.142789840698242,0.0000359514347148629
226,0.140645503997803,0.0000304747071741121
227,0.138584136962891,0.0000372131612509204
228,0.136550903320312,0.000047423127520325
229,0.134518623352051,0.0000476682160935559
230,0.13248872756958,0.0000354554961621858
231,0.130524158477783,0.0000335823380692654
232,0.128468990325928,0.0000247450461298544
233,0.126579761505127,0.0000280575214123295
234,0.124601364135742,0.0000322332748869526
235,0.122677326202393,0.0000427860059413393
236,0.120895385742187,0.0000310466399731553
237,0.1191086769104,0.0000341746233909631
238,0.117489814758301,0.0000284792963750062
239,0.115898132324219,0.000026356308546314
240,0.114487171173096,0.0000340229243552269
241,0.113098621368408,0.0000294459010660794
242,0.111699104309082,0.0000452694039807225
243,0.110430717468262,0.0000321794431491183
244,0.109285354614258,0.0000264236203777473
245,0.108139514923096,0.0000404946780120128
246,0.107147693634033,0.0000330439893611117
247,0.106147766113281,0.0000357325744167905
248,0.105234146118164,0.0000337865289362898
249,0.104376792907715,0.0000420252902905537
250,0.103570461273193,0.0000356911896225204
251,0.10282564163208,0.0000322041639716892
252,0.102118015289307,0.000034270960309014
253,0.101436614990234,0.0000341221885072738
254,0.100802421569824,0.0000361099873338122
255,0.100035190582275,0.0000358017073879495
256,0.0994443893432617,0.0000358104388342258
257,0.0987548828125,0.00004151017412548
258,0.0980563163757324,0.0000434720174761469
259,0.0973014831542969,0.0000569765535210822
260,0.0965828895568848,0.0000284718105566538
261,0.0958356857299805,0.0000489426365329295
262,0.0949764251708984,0.000061419513587122
263,0.0940980911254883,0.0000621426946931645
264,0.0931715965270996,0.0000449202368952008
265,0.0922517776489258,0.0000409934383991154
266,0.0911860466003418,0.0000510182335017237
267,0.0901660919189453,0.0000556430349505712
268,0.0890545845031738,0.0000465020143682277
269,0.0879201889038086,0.0000521488527691528
270,0.0868616104125977,0.0000664105954089585
271,0.0856442451477051,0.0000481215876457915
272,0.084373950958252,0.0000447681277494868
273,0.0831732749938965,0.0000479523719930246
274,0.0818696022033691,0.000053146490789078
275,0.0807347297668457,0.0000359759336785265
276,0.0794086456298828,0.0000410952305548297
277,0.0781469345092773,0.000041861305720689
278,0.0769491195678711,0.000033344523882002
279,0.0756368637084961,0.0000334390025630394
280,0.0744495391845703,0.0000409414061234773
281,0.0733180046081543,0.0000443778896507208
282,0.0721158981323242,0.0000428484023714448
283,0.0709323883056641,0.0000478467538209248
284,0.0697684288024902,0.0000380133733159871
285,0.0685877799987793,0.0000313853406137155
286,0.0674142837524414,0.0000351155846505153
287,0.066281795501709,0.000041979953727245
288,0.0651273727416992,0.0000417600197225855
289,0.0640749931335449,0.0000486362214041517
290,0.0629372596740723,0.0000377447560186634
291,0.0618324279785156,0.0000405178328655297
292,0.060819149017334,0.000034898812193421
293,0.0598206520080566,0.0000343057742092227
294,0.0587525367736816,0.0000280220446817002
295,0.0578122138977051,0.0000385906819159018
296,0.0569324493408203,0.0000439738493062293
297,0.0559754371643066,0.0000372047590057984
298,0.0550093650817871,0.0000401407965918523
299,0.0540642738342285,0.0000439777271277192
300,0.0532808303833008,0.0000380365442284822
301,0.052363395690918,0.0000349460156642442
302,0.0515356063842773,0.0000350450982008414
303,0.0506911277770996,0.0000358112324965044
304,0.049839973449707,0.0000395688656534667
305,0.0490398406982422,0.0000459832740763893
306,0.0483202934265137,0.0000326128381209698
307,0.0475559234619141,0.0000337840051992976
308,0.0467653274536133,0.0000400387075055191
309,0.0460848808288574,0.0000518690564275276
310,0.0453004837036133,0.000046852738976144
311,0.044588565826416,0.0000519030182807456
312,0.04388427734375,0.0000418164710490517
313,0.0431814193725586,0.0000614102579452444
314,0.0425863265991211,0.0000578763249233199
315,0.0419178009033203,0.0000442637431911754
316,0.0412020683288574,0.000056842709425977
317,0.0406913757324219,0.0000593609596888518
318,0.0400557518005371,0.0000525787298522562
319,0.0393886566162109,0.000046904879102165
320,0.0387091636657715,0.0000512782884821954
321,0.038179874420166,0.0000504850989390029
322,0.037693977355957,0.0000500156493232512
323,0.037041187286377,0.0000553706297569076
324,0.036503791809082,0.0000493301810399191
325,0.0358853340148926,0.000052089958301978
326,0.0353565216064453,0.0000402242597750914
327,0.0348734855651855,0.0000401684010680539
328,0.0342941284179687,0.0000647726721641042
329,0.0337858200073242,0.0000658570638510377
330,0.0332379341125488,0.000051245021851216
331,0.0326638221740723,0.0000568527086712961
332,0.032139778137207,0.0000502062203911395
333,0.0316834449768066,0.0000544482476051028
334,0.0311441421508789,0.0000346782261573347
335,0.0306415557861328,0.000036783745039675
336,0.0301918983459473,0.000052497583944858
337,0.0296659469604492,0.0000535853381097372
338,0.0291028022766113,0.0000536944895182009
339,0.0286588668823242,0.0000614935085703881
340,0.028231143951416,0.0000486455704784664
341,0.0277695655822754,0.0000437795202937255
342,0.0273003578186035,0.0000511250827486633
343,0.0269570350646973,0.0000709959128205671
344,0.0265312194824219,0.0000670562585115316
345,0.026064395904541,0.0000465166806893561
346,0.0256156921386719,0.0000500395103974708
347,0.0252203941345215,0.0000466582174491399
348,0.0248022079467773,0.000037552250732798
349,0.0244283676147461,0.0000390016652043887
350,0.0240445137023926,0.000040999677834732
351,0.0236668586730957,0.0000539469124124416
352,0.0233135223388672,0.0000506301374375677
353,0.0229411125183105,0.00005390369373697
354,0.0226244926452637,0.0000580381539580108
355,0.0222597122192383,0.00006797396897844
356,0.0217642784118652,0.0000458694048981884
357,0.0214753150939941,0.0000488205341309748
358,0.0211653709411621,0.000070691008189807
359,0.0208015441894531,0.0000526619095683123
360,0.0204191207885742,0.0000402461578344905
361,0.0199942588806152,0.0000544002028739911
362,0.019780158996582,0.0000588183998312305
363,0.0194311141967773,0.0000732096460689974
364,0.0189704895019531,0.0000577091173404777
365,0.0187273025512695,0.0000427042218509182
366,0.0183553695678711,0.0000418001556090826
367,0.0181832313537598,0.0000583439053806019
368,0.0177979469299316,0.0000569675738433826
369,0.0174145698547363,0.0000543165455981293
370,0.0171933174133301,0.0000639068537663319
371,0.0168838500976562,0.0000709462546811798
372,0.0166258811950684,0.000063610863287553
373,0.0164222717285156,0.000064378314330054
374,0.016106128692627,0.0000683126438867425
375,0.0158157348632812,0.0000613250404959594
376,0.015587329864502,0.0000642298059100446
377,0.0152072906494141,0.0000750499879285783
378,0.0150728225708008,0.0000783160577090113
379,0.0148186683654785,0.0000896250925023707
380,0.0145611763000488,0.000129454043485972
381,0.0142335891723633,0.00011337900208971
382,0.0141677856445312,0.000073744990129847
383,0.0138382911682129,0.0000648743919621157
384,0.0136561393737793,0.0000622523648085311
385,0.0134868621826172,0.0000622231383445689
386,0.0131502151489258,0.0000467555793734711
387,0.0130143165588379,0.0000654900728346342
388,0.0128183364868164,0.0000730074907097912
389,0.0124702453613281,0.000104782727774203
390,0.0123782157897949,0.000111893270863829
391,0.0121574401855469,0.0000831558068782907
392,0.0120863914489746,0.0000780994636181334
393,0.011725902557373,0.0000682243835442901
394,0.0113458633422852,0.0000701242502905434
395,0.0111560821533203,0.0000571051070676418
396,0.0110526084899902,0.0000739312909665444
397,0.0110297203063965,0.0000756309430929259
398,0.0107760429382324,0.0000500281494005263
399,0.0104861259460449,0.0000447134960405954
400,0.010434627532959,0.0000680391654271582
401,0.0102505683898926,0.000104099132424936
402,0.0101165771484375,0.0000692038418432156
403,0.00995540618896484,0.0000654483970137929
404,0.00978994369506836,0.0000791736373946181
405,0.00970888137817383,0.0000652535579108558
406,0.00941324234008789,0.0000797701678633955
407,0.00926351547241211,0.0000732360405130589
408,0.00910568237304688,0.0000992394245154019
409,0.00901651382446289,0.000107938070807807
410,0.00885200500488281,0.0000772432043438505
411,0.00871753692626953,0.0000671121832222361
412,0.00855445861816406,0.000069756892334454
413,0.00838422775268555,0.0000610649512999806
414,0.00824451446533203,0.0000558612237762736
415,0.00816822052001953,0.0000777814808048389
416,0.00803852081298828,0.0000548134631938803
417,0.00789070129394531,0.0000712548536778188
418,0.0077672004699707,0.0000742948406355374
419,0.00766563415527344,0.0000820298515850602
420,0.00755643844604492,0.0000685087396504942
421,0.00754213333129883,0.0000518515190257576
422,0.00728416442871094,0.0000632721763773698
423,0.00721502304077148,0.0000601892413213277
424,0.00706958770751953,0.0000545337875812762
425,0.00704860687255859,0.0000472008576069388
426,0.00696802139282227,0.0000597380099775807
427,0.00680208206176758,0.000043342373106603
428,0.00668954849243164,0.0000398223266444695
429,0.00678348541259766,0.0000399868544541287
430,0.00664234161376953,0.0000397944821054785
431,0.00647354125976563,0.0000408190432720808
432,0.00641727447509766,0.0000507613256028685
433,0.0063776969909668,0.0000524856719956264
434,0.0062413215637207,0.0000603335632712707
435,0.0062413215637207,0.0000715795948747811
436,0.00603914260864258,0.000069525081562323
437,0.00603342056274414,0.0000720876227396567
438,0.00597429275512695,0.0000601816855541222
439,0.00586700439453125,0.0000415313941725095
440,0.00578451156616211,0.0000500156493232512
441,0.00591754913330078,0.0000560501746081057
442,0.00556468963623047,0.0000576440707525708
443,0.00557041168212891,0.0000419013445888527
444,0.00540781021118164,0.0000448201564314646
445,0.00536918640136719,0.0000657776076640772
446,0.00540542602539063,0.0000534004396102813
447,0.00519466400146484,0.0000573950329716914
448,0.00522422790527344,0.0000467507160928907
449,0.00523710250854492,0.0000465313423877732
450,0.00515890121459961,0.0000501847040047758
451,0.00513648986816406,0.0000630742197671143
452,0.0051422119140625,0.000084938605603187
453,0.00494289398193359,0.0000717936894763225
454,0.00487995147705078,0.0000701647690846115
455,0.00493288040161133,0.0000683658779831802
456,0.00489616394042969,0.0000714476478785412
457,0.00483179092407227,0.0000516031665690528
458,0.00470495223999023,0.000053231986908355
459,0.00477457046508789,0.0000626909401750865
460,0.00467252731323242,0.0000693384191285549
461,0.00466203689575195,0.0000849118322043806
462,0.00456666946411133,0.0000624802259413717
463,0.00461578369140625,0.0000543698919847875
464,0.00453853607177734,0.0000504445486521877
465,0.00440549850463867,0.0000526629889601685
466,0.00435256958007813,0.0000604079474671043
467,0.00437307357788086,0.0000458322124774956
468,0.00425815582275391,0.0000562688051281259
469,0.00435018539428711,0.0000594470802527461
470,0.00419282913208008,0.0000874317045950807
471,0.00432205200195313,0.0000725356936256654
472,0.00426054000854492,0.0000593647899224142
473,0.00409173965454102,0.0000555980675711912
474,0.00409460067749023,0.0000595760276761455
475,0.00414514541625977,0.0000629190198838325
476,0.00406408309936523,0.0000706829666221936
477,0.00412416458129883,0.0000790673080755357
478,0.00400066375732422,0.0000826580399803533
479,0.00399446487426758,0.0000876369100842875
480,0.00406932830810547,0.0000820243077164644
481,0.00389766693115234,0.0000617849224084357
482,0.0038599967956543,0.0000850268980052372
483,0.00382566452026367,0.0000743820115657016
484,0.00375795364379883,0.0000618952264519892
485,0.00472927093505859,0.0000511406462785305
486,0.00347900390625,0.0000469630136575513
487,0.00357723236083984,0.0000582932206993155
488,0.00349807739257812,0.0000823769830936
489,0.00354385375976562,0.0000644030324397496
490,0.00348997116088867,0.0000579460158432651
491,0.0035557746887207,0.0000590585487571374
492,0.00347089767456055,0.0000529675729224404
493,0.0034947395324707,0.0000583380593955121
494,0.00343656539916992,0.0000532223754512309
495,0.00341939926147461,0.0000726296721063987
496,0.00346946716308594,0.0000773667370776556
497,0.00327014923095703,0.000058666475309023
498,0.00324249267578125,0.0000421333593607611
499,0.00326967239379883,0.0000584927805907022
500,0.00322723388671875,0.0000677058392652436
501,0.00316429138183594,0.0000508553032763452
502,0.00326776504516602,0.0000489298591412188
503,0.0032200813293457,0.0000573910712782978
504,0.00313234329223633,0.0000697161364841349
505,0.00310277938842773,0.0000641625106084165
506,0.00313138961791992,0.0000723096469393439
507,0.0030817985534668,0.0000687671266076193
508,0.00310087203979492,0.0000694334504430166
509,0.00300407409667969,0.0000587003778906445
510,0.00307035446166992,0.0000519117790231965
511,0.00296211242675781,0.0000711782286673818
512,0.00291538238525391,0.0000810987727149488
513,0.00293731689453125,0.0000440539215819172
514,0.0029296875,0.0000309760699632868
515,0.00290727615356445,0.0000419230445907418
516,0.00290822982788086,0.0000616006434176795
517,0.00282430648803711,0.0000627688700557874
518,0.00281572341918945,0.0000567326014099184
519,0.00281095504760742,0.0000494176786291913
520,0.00287485122680664,0.0000540647970925673
521,0.00277280807495117,0.0000625602355766373
522,0.00269842147827148,0.000051830685653981
523,0.00281190872192383,0.0000478586326546988
524,0.00284671783447266,0.0000646743081405105
525,0.00267314910888672,0.000059295807863764
526,0.00270223617553711,0.0000550132466501218
527,0.00261783599853516,0.0000588889064074056
528,0.00255393981933594,0.0000607448244044749
529,0.00257205963134766,0.000050176774589275
530,0.00259780883789062,0.000049592210683047
531,0.00259828567504883,0.0000506817561996641
532,0.00257349014282227,0.0000615969522145472
533,0.00266361236572266,0.0000543678009557313
534,0.00258541107177734,0.0000619227717618863
535,0.00245332717895508,0.0000507299610240755
536,0.00255489349365234,0.0000514984130859375
537,0.00257110595703125,0.0000442996861473141
538,0.00250005722045898,0.0000441274082231875
539,0.00255727767944336,0.0000437210531603626
540,0.00240421295166016,0.0000453935450664992
541,0.00249004364013672,0.0000650424062077717
542,0.00246715545654297,0.0000583078458019581
543,0.00237083435058594,0.0000529986858288766
544,0.00234556198120117,0.0000578930191203651
545,0.00231409072875977,0.0000530426419019128
546,0.00241231918334961,0.0000564926270279689
547,0.00242900848388672,0.0000601004010643123
548,0.00236701965332031,0.000057973476552335
549,0.00228166580200195,0.0000467823183796916
550,0.00229215621948242,0.0000457974723006204
551,0.0022735595703125,0.0000603910072288039
552,0.00227689743041992,0.000057109088598556
553,0.00220870971679687,0.0000584684804855487
554,0.00215959548950195,0.0000609391545246288
555,0.00219154357910156,0.0000682277161962006
556,0.00215625762939453,0.0000661515967878361
557,0.00218486785888672,0.0000476968270396182
558,0.00223350524902344,0.0000492101953898594
559,0.00218677520751953,0.0000454848664157428
560,0.00217199325561523,0.0000586315836305504
561,0.00211620330810547,0.0000609689964898856
562,0.00212240219116211,0.0000402016428153191
563,0.00210857391357422,0.000059619901611828
564,0.00210905075073242,0.0000826841682139157
565,0.0020294189453125,0.0000523425171562586
566,0.00207185745239258,0.0000416038712659243
567,0.00206232070922852,0.0000508184042024563
568,0.00202846527099609,0.0000523642324397833
569,0.00207376480102539,0.0000474387073253413
570,0.00210380554199219,0.0000326633453369141
571,0.00211143493652344,0.000036514644086984
572,0.00196456909179687,0.0000536489484575248
573,0.00214385986328125,0.0000494360794410477
574,0.00210142135620117,0.0000409629208108039
575,0.00197124481201172,0.0000457651899520294
576,0.00206565856933594,0.0000520670369073338
577,0.00205087661743164,0.0000351956216568869
578,0.00193643569946289,0.0000434733250428828
579,0.00193500518798828,0.0000424398464891611
580,0.00206899642944336,0.000037210106108577
581,0.0020594596862793,0.0000273652188018347
582,0.00191307067871094,0.0000368362491525175
583,0.00182867050170898,0.0000435373477066817
584,0.00202274322509766,0.0000329043553202583
585,0.00198078155517578,0.0000423902601670226
586,0.00187110900878906,0.0000513823844562423
587,0.0019993782043457,0.0000426782575857646
588,0.00181770324707031,0.0000429868103065015
589,0.00177145004272461,0.0000543416563036036
590,0.00178050994873047,0.00005306514188737
591,0.00177001953125,0.0000429702778075221
592,0.00199604034423828,0.0000314748646368203
593,0.00188207626342773,0.0000386289604897035
594,0.00182104110717773,0.0000386738159103234
595,0.00184297561645508,0.0000344512784351128
596,0.00173854827880859,0.0000390941044520852
597,0.00179767608642578,0.0000389783388475147
598,0.00182628631591797,0.0000397516062683208
599,0.00186061859130859,0.0000424150605743492
600,0.00177526473999023,0.0000542579087580903
601,0.0017242431640625,0.0000463047919704827
602,0.00172567367553711,0.0000401698161708733
603,0.00175094604492187,0.000054239047739818
604,0.00163364410400391,0.0000476049726724288
605,0.00175666809082031,0.0000348401258085228
606,0.00172090530395508,0.0000458941831005671
607,0.00174236297607422,0.0000407974527104735
608,0.00165176391601562,0.0000378289977374612
609,0.00171661376953125,0.0000355147662402904
610,0.00164413452148437,0.0000393441225905156
611,0.00159358978271484,0.000034685601626453
612,0.00159358978271484,0.0000376195507599112
613,0.00163507461547852,0.0000318536501309571
614,0.0016937255859375,0.0000488275196365739
615,0.00161361694335937,0.000047853881475033
616,0.00156927108764648,0.0000272945021495126
617,0.0016326904296875,0.0000316477651711371
618,0.00148391723632812,0.0000524802565794401
619,0.00150966644287109,0.0000403315171314058
620,0.00159311294555664,0.000038746503526548
621,0.00147628784179687,0.0000383616901463877
622,0.00155878067016602,0.0000344182633068439
