Wavelength (nm),Absorbance (AU),Std.Dev.
190,0.238017559051514,0.0000790083342794828
191,0.233391284942627,0.0000770958834812957
192,0.22905969619751,0.0000589236457122109
193,0.225466251373291,0.0000446460673046697
194,0.222168445587158,0.0000344957987359643
195,0.219093322753906,0.0000524824228129696
196,0.216372013092041,0.0000320182925708832
197,0.213850021362305,0.0000251980354130084
198,0.2110915184021,0.0000338772582538746
199,0.208069801330566,0.0000290249528720824
200,0.205148220062256,0.0000355379667433216
201,0.202315807342529,0.000040489764674107
202,0.199594020843506,0.0000363914546647851
203,0.197172164916992,0.0000430046582667086
204,0.194809436798096,0.0000417171201288212
205,0.19227933883667,0.0000462642636792683
206,0.189723014831543,0.0000428802293591179
207,0.187158107757568,0.0000294893038819514
208,0.184498310089111,0.0000295807229160115
209,0.18172025680542,0.0000474039453464104
210,0.178969860076904,0.0000426249480591825
211,0.176213264465332,0.0000319889860160066
212,0.173513889312744,0.0000522131244857493
213,0.170674324035645,0.0000464322860793298
214,0.16807222366333,0.000048805395438858
215,0.165389537811279,0.0000379490186544866
216,0.1628098487854,0.0000303129323207927
217,0.160293102264404,0.0000244143418951737
218,0.157935619354248,0.0000312255530570627
219,0.155591011047363,0.0000301205807833768
220,0.153316497802734,0.0000248904885882931
221,0.151132106781006,0.0000346683897577162
222,0.149029731750488,0.0000383439047155451
223,0.146880626678467,0.0000312237325904786
224,0.144834518432617,0.0000310319892839784
225,0.142789840698242,0.0000359514347148629
226,0.140645503997803,0.0000304747071741121
227,0.138584136962891,0.0000372131612509204
228,0.136550903320312,0.000047423127520325
229,0.134518623352051,0.0000476682160935559
230,0.13248872756958,0.0000354554961621858
231,0.130524158477783,0.0000335823380692654
232,0.128468990325928,0.0000247450461298544
233,0.126579761505127,0.0000280575214123295
234,0.124601364135742,0.0000322332748869526
235,0.122677326202393,0.0000427860059413393
236,0.120895385742187,0.0000310466399731553
237,0.1191086769104,0.0000341746233909631
238,0.117489814758301,0.0000284792963750062
239,0.115898132324219,0.000026356308546314
240,0.114487171173096,0.0000340229243552269
241,0.113098621368408,0.0000294459010660794
242,0.111699104309082,0.0000452694039807225
243,0.110430717468262,0.0000321794431491183
244,0.109285354614258,0.0000264236203777473
245,0.108139514923096,0.0000404946780120128
246,0.107147693634033,0.0000330439893611117
247,0.106147766113281,0.0000357325744167905
248,0.105234146118164,0.0000337865289362898
249,0.104376792907715,0.0000420252902905537
250,0.103570461273193,0.0000356911896225204
251,0.10282564163208,0.0000322041639716892
252,0.102118015289307,0.000034270960309014
253,0.101436614990234,0.0000341221885072738
254,0.100802421569824,0.0000361099873338122
255,0.100035190582275,0.0000358017073879495
256,0.0994443893432617,0.0000358104388342258
257,0.0987548828125,0.00004151017412548
258,0.0980563163757324,0.0000434720174761469
259,0.0973014831542969,0.0000569765535210822
260,0.0965828895568848,0.0000284718105566538
261,0.0958356857299805,0.0000489426365329295
262,0.0949764251708984,0.000061419513587122
263,0.0940980911254883,0.0000621426946931645
264,0.0931715965270996,0.0000449202368952008
265,0.0922517776489258,0.0000409934383991154
266,0.0911860466003418,0.0000510182335017237
267,0.0901660919189453,0.0000556430349505712
268,0.0890545845031738,0.0000465020143682277
269,0.0879201889038086,0.0000521488527691528
270,0.0868616104125977,0.0000664105954089585
271,0.0856442451477051,0.0000481215876457915
272,0.084373950958252,0.0000447681277494868
273,0.0831732749938965,0.0000479523719930246
274,0.0818696022033691,0.000053146490789078
275,0.0807347297668457,0.0000359759336785265
276,0.0794086456298828,0.0000410952305548297
277,0.0781469345092773,0.000041861305720689
278,0.0769491195678711,0.000033344523882002
279,0.0756368637084961,0.0000334390025630394
280,0.0744495391845703,0.0000409414061234773
281,0.0733180046081543,0.0000443778896507208
282,0.0721158981323242,0.0000428484023714448
283,0.0709323883056641,0.0000478467538209248
284,0.0697684288024902,0.0000380133733159871
285,0.0685877799987793,0.0000313853406137155
286,0.0674142837524414,0.0000351155846505153
287,0.066281795501709,0.000041979953727245
288,0.0651273727416992,0.0000417600197225855
289,0.0640749931335449,0.0000486362214041517
290,0.0629372596740723,0.0000377447560186634
291,0.0618324279785156,0.0000405178328655297
292,0.060819149017334,0.000034898812193421
293,0.0598206520080566,0.0000343057742092227
294,0.0587525367736816,0.0000280220446817002
295,0.0578122138977051,0.0000385906819159018
296,0.0569324493408203,0.0000439738493062293
297,0.0559754371643066,0.0000372047590057984
298,0.0550093650817871,0.0000401407965918523
299,0.0540642738342285,0.0000439777271277192
300,0.0532808303833008,0.0000380365442284822
301,0.052363395690918,0.0000349460156642442
302,0.0515356063842773,0.0000350450982008414
303,0.0506911277770996,0.0000358112324965044
304,0.049839973449707,0.0000395688656534667
305,0.0490398406982422,0.0000459832740763893
306,0.0483202934265137,0.0000326128381209698
307,0.0475559234619141,0.0000337840051992976
308,0.0467653274536133,0.0000400387075055191
309,0.0460848808288574,0.0000518690564275276
310,0.0453004837036133,0.000046852738976144
311,0.044588565826416,0.0000519030182807456
312,0.04388427734375,0.0000418164710490517
313,0.0431814193725586,0.0000614102579452444
314,0.0425863265991211,0.0000578763249233199
315,0.0419178009033203,0.0000442637431911754
316,0.0412020683288574,0.000056842709425977
317,0.0406913757324219,0.0000593609596888518
318,0.0400557518005371,0.0000525787298522562
319,0.0393886566162109,0.000046904879102165
320,0.0387091636657715,0.0000512782884821954
321,0.038179874420166,0.0000504850989390029
322,0.037693977355957,0.0000500156493232512
323,0.037041187286377,0.0000553706297569076
324,0.036503791809082,0.0000493301810399191
325,0.0358853340148926,0.000052089958301978
326,0.0353565216064453,0.0000402242597750914
327,0.0348734855651855,0.0000401684010680539
328,0.0342941284179687,0.0000647726721641042
329,0.0337858200073242,0.0000658570638510377
330,0.0332379341125488,0.000051245021851216
331,0.0326638221740723,0.0000568527086712961
332,0.032139778137207,0.0000502062203911395
333,0.0316834449768066,0.0000544482476051028
334,0.0311441421508789,0.0000346782261573347
335,0.0306415557861328,0.000036783745039675
336,0.0301918983459473,0.000052497583944858
337,0.0296659469604492,0.0000535853381097372
338,0.0291028022766113,0.0000536944895182009
339,0.0286588668823242,0.0000614935085703881
340,0.028231143951416,0.0000486455704784664
341,0.0277695655822754,0.0000437795202937255
342,0.0273003578186035,0.0000511250827486633
343,0.0269570350646973,0.0000709959128205671
344,0.0265312194824219,0.0000670562585115316
345,0.026064395904541,0.0000465166806893561
346,0.0256156921386719,0.0000500395103974708
347,0.0252203941345215,0.0000466582174491399
348,0.0248022079467773,0.000037552250732798
349,0.0244283676147461,0.0000390016652043887
350,0.0240445137023926,0.000040999677834732
351,0.0236668586730957,0.0000539469124124416
352,0.0233135223388672,0.0000506301374375677
353,0.0229411125183105,0.00005390369373697
354,0.0226244926452637,0.0000580381539580108
355,0.0222597122192383,0.00006797396897844
356,0.0217642784118652,0.0000458694048981884
357,0.0214753150939941,0.0000488205341309748
358,0.0211653709411621,0.000070691008189807
359,0.0208015441894531,0.0000526619095683123
360,0.0204191207885742,0.0000402461578344905
361,0.0199942588806152,0.0000544002028739911
362,0.019780158996582,0.0000588183998312305
363,0.0194311141967773,0.0000732096460689974
364,0.0189704895019531,0.0000577091173404777
365,0.0187273025512695,0.0000427042218509182
366,0.0183553695678711,0.0000418001556090826
367,0.0181832313537598,0.0000583439053806019
368,0.0177979469299316,0.0000569675738433826
369,0.0174145698547363,0.0000543165455981293
370,0.0171933174133301,0.0000639068537663319
371,0.0168838500976562,0.0000709462546811798
372,0.0166258811950684,0.000063610863287553
373,0.0164222717285156,0.000064378314330054
374,0.016106128692627,0.0000683126438867425
375,0.0158157348632812,0.0000613250404959594
376,0.015587329864502,0.0000642298059100446
377,0.0152072906494141,0.0000750499879285783
378,0.0150728225708008,0.0000783160577090113
379,0.0148186683654785,0.0000896250925023707
380,0.0145611763000488,0.000129454043485972
381,0.0142335891723633,0.00011337900208971
382,0.0141677856445312,0.000073744990129847
383,0.0138382911682129,0.0000648743919621157
384,0.0136561393737793,0.0000622523648085311
385,0.0134868621826172,0.0000622231383445689
386,0.0131502151489258,0.0000467555793734711
387,0.0130143165588379,0.0000654900728346342
388,0.0128183364868164,0.0000730074907097912
389,0.0124702453613281,0.000104782727774203
390,0.0123782157897949,0.000111893270863829
391,0.0121574401855469,0.0000831558068782907
392,0.0120863914489746,0.0000780994636181334
393,0.011725902557373,0.0000682243835442901
394,0.0113458633422852,0.0000701242502905434
395,0.0111560821533203,0.0000571051070676418
396,0.0110526084899902,0.0000739312909665444
397,0.0110297203063965,0.0000756309430929259
398,0.0107760429382324,0.0000500281494005263
399,0.0104861259460449,0.0000447134960405954
400,0.010434627532959,0.0000680391654271582
401,0.0102505683898926,0.000104099132424936
402,0.0101165771484375,0.0000692038418432156
403,0.00995540618896484,0.0000654483970137929
404,0.00978994369506836,0.0000791736373946181
405,0.00970888137817383,0.0000652535579108558
406,0.00941324234008789,0.0000797701678633955
407,0.00926351547241211,0.0000732360405130589
408,0.00910568237304688,0.0000992394245154019
409,0.00901651382446289,0.000107938070807807
410,0.00885200500488281,0.0000772432043438505
411,0.00871753692626953,0.0000671121832222361
412,0.00855445861816406,0.000069756892334454
413,0.00838422775268555,0.0000610649512999806
414,0.00824451446533203,0.0000558612237762736
415,0.00816822052001953,0.0000777814808048389
416,0.00803852081298828,0.0000548134631938803
417,0.00789070129394531,0.0000712548536778188
418,0.0077672004699707,0.0000742948406355374
419,0.00766563415527344,0.0000820298515850602
420,0.00755643844604492,0.0000685087396504942
421,0.00754213333129883,0.0000518515190257576
422,0.00728416442871094,0.0000632721763773698
423,0.00721502304077148,0.0000601892413213277
424,0.00706958770751953,0.0000545337875812762
425,0.00704860687255859,0.0000472008576069388
426,0.00696802139282227,0.0000597380099775807
427,0.00680208206176758,0.000043342373106603
428,0.00668954849243164,0.0000398223266444695
429,0.00678348541259766,0.0000399868544541287
430,0.00664234161376953,0.0000397944821054785
431,0.00647354125976563,0.0000408190432720808
432,0.00641727447509766,0.0000507613256028685
433,0.0063776969909668,0.0000524856719956264
434,0.0062413215637207,0.0000603335632712707
435,0.0062413215637207,0.0000715795948747811
436,0.00603914260864258,0.000069525081562323
437,0.00603342056274414,0.0000720876227396567
438,0.00597429275512695,0.0000601816855541222
439,0.00586700439453125,0.0000415313941725095
440,0.00578451156616211,0.0000500156493232512
441,0.00591754913330078,0.0000560501746081057
442,0.00556468963623047,0.0000576440707525708
443,0.00557041168212891,0.0000419013445888527
444,0.00540781021118164,0.0000448201564314646
445,0.00536918640136719,0.0000657776076640772
446,0.00540542602539063,0.0000534004396102813
447,0.00519466400146484,0.0000573950329716914
448,0.00522422790527344,0.0000467507160928907
449,0.00523710250854492,0.0000465313423877732
450,0.00515890121459961,0.0000501847040047758
451,0.00513648986816406,0.0000630742197671143
452,0.0051422119140625,0.000084938605603187
453,0.00494289398193359,0.0000717936894763225
454,0.00487995147705078,0.0000701647690846115
455,0.00493288040161133,0.0000683658779831802
456,0.00489616394042969,0.0000714476478785412
457,0.00483179092407227,0.0000516031665690528
458,0.00470495223999023,0.000053231986908355
459,0.00477457046508789,0.0000626909401750865
460,0.00467252731323242,0.0000693384191285549
461,0.00466203689575195,0.0000849118322043806
462,0.00456666946411133,0.0000624802259413717
463,0.00461578369140625,0.0000543698919847875
464,0.00453853607177734,0.0000504445486521877
465,0.00440549850463867,0.0000526629889601685
466,0.00435256958007813,0.0000604079474671043
467,0.00437307357788086,0.0000458322124774956
468,0.00425815582275391,0.0000562688051281259
469,0.00435018539428711,0.0000594470802527461
470,0.00419282913208008,0.0000874317045950807
471,0.00432205200195313,0.0000725356936256654
472,0.00426054000854492,0.0000593647899224142
473,0.00409173965454102,0.0000555980675711912
474,0.00409460067749023,0.0000595760276761455
475,0.00414514541625977,0.0000629190198838325
476,0.00406408309936523,0.0000706829666221936
477,0.00412416458129883,0.0000790673080755357
478,0.00400066375732422,0.0000826580399803533
479,0.00399446487426758,0.0000876369100842875
480,0.00406932830810547,0.0000820243077164644
481,0.00389766693115234,0.0000617849224084357
482,0.0038599967956543,0.0000850268980052372
483,0.00382566452026367,0.0000743820115657016
484,0.00375795364379883,0.0000618952264519892
485,0.00472927093505859,0.0000511406462785305
486,0.00347900390625,0.0000469630136575513
487,0.00357723236083984,0.0000582932206993155
488,0.00349807739257812,0.0000823769830936
489,0.00354385375976562,0.0000644030324397496
490,0.00348997116088867,0.0000579460158432651
491,0.0035557746887207,0.0000590585487571374
492,0.00347089767456055,0.0000529675729224404
493,0.0034947395324707,0.0000583380593955121
494,0.00343656539916992,0.0000532223754512309
495,0.00341939926147461,0.0000726296721063987
496,0.00346946716308594,0.0000773667370776556
497,0.00327014923095703,0.000058666475309023
498,0.00324249267578125,0.0000421333593607611
499,0.00326967239379883,0.0000584927805907022
500,0.00322723388671875,0.0000677058392652436
501,0.00316429138183594,0.0000508553032763452
502,0.00326776504516602,0.0000489298591412188
503,0.0032200813293457,0.0000573910712782978
504,0.00313234329223633,0.0000697161364841349
505,0.00310277938842773,0.0000641625106084165
506,0.00313138961791992,0.0000723096469393439
507,0.0030817985534668,0.0000687671266076193
508,0.00310087203979492,0.0000694334504430166
509,0.00300407409667969,0.0000587003778906445
510,0.00307035446166992,0.0000519117790231965
511,0.00296211242675781,0.0000711782286673818
512,0.00291538238525391,0.0000810987727149488
513,0.00293731689453125,0.0000440539215819172
514,0.0029296875,0.0000309760699632868
515,0.00290727615356445,0.0000419230445907418
516,0.00290822982788086,0.0000616006434176795
517,0.00282430648803711,0.0000627688700557874
518,0.00281572341918945,0.0000567326014099184
519,0.00281095504760742,0.0000494176786291913
520,0.00287485122680664,0.0000540647970925673
521,0.00277280807495117,0.0000625602355766373
522,0.00269842147827148,0.000051830685653981
523,0.00281190872192383,0.0000478586326546988
524,0.00284671783447266,0.0000646743081405105
525,0.00267314910888672,0.000059295807863764
526,0.00270223617553711,0.0000550132466501218
527,0.00261783599853516,0.0000588889064074056
528,0.00255393981933594,0.0000607448244044749
529,0.00257205963134766,0.000050176774589275
530,0.00259780883789062,0.000049592210683047
531,0.00259828567504883,0.0000506817561996641
532,0.00257349014282227,0.0000615969522145472
533,0.00266361236572266,0.0000543678009557313
534,0.00258541107177734,0.0000619227717618863
535,0.00245332717895508,0.0000507299610240755
536,0.00255489349365234,0.0000514984130859375
537,0.00257110595703125,0.0000442996861473141
538,0.00250005722045898,0.0000441274082231875
539,0.00255727767944336,0.0000437210531603626
540,0.00240421295166016,0.0000453935450664992
541,0.00249004364013672,0.0000650424062077717
542,0.00246715545654297,0.0000583078458019581
543,0.00237083435058594,0.0000529986858288766
544,0.00234556198120117,0.0000578930191203651
545,0.00231409072875977,0.0000530426419019128
546,0.00241231918334961,0.0000564926270279689
547,0.00242900848388672,0.0000601004010643123
548,0.00236701965332031,0.000057973476552335
549,0.00228166580200195,0.0000467823183796916
550,0.00229215621948242,0.0000457974723006204
551,0.0022735595703125,0.0000603910072288039
552,0.00227689743041992,0.000057109088598556
553,0.00220870971679687,0.0000584684804855487
554,0.00215959548950195,0.0000609391545246288
555,0.00219154357910156,0.0000682277161962006
556,0.00215625762939453,0.0000661515967878361
557,0.00218486785888672,0.0000476968270396182
558,0.00223350524902344,0.0000492101953898594
559,0.00218677520751953,0.0000454848664157428
560,0.00217199325561523,0.0000586315836305504
561,0.00211620330810547,0.0000609689964898856
562,0.00212240219116211,0.0000402016428153191
563,0.00210857391357422,0.000059619901611828
564,0.00210905075073242,0.0000826841682139157
565,0.0020294189453125,0.0000523425171562586
566,0.00207185745239258,0.0000416038712659243
567,0.00206232070922852,0.0000508184042024563
568,0.00202846527099609,0.0000523642324397833
569,0.00207376480102539,0.0000474387073253413
570,0.00210380554199219,0.0000326633453369141
571,0.00211143493652344,0.000036514644086984
572,0.00196456909179687,0.0000536489484575248
573,0.00214385986328125,0.0000494360794410477
574,0.00210142135620117,0.0000409629208108039
575,0.00197124481201172,0.0000457651899520294
576,0.00206565856933594,0.0000520670369073338
577,0.00205087661743164,0.0000351956216568869
578,0.00193643569946289,0.0000434733250428828
579,0.00193500518798828,0.0000424398464891611
580,0.00206899642944336,0.000037210106108577
581,0.0020594596862793,0.0000273652188018347
582,0.00191307067871094,0.0000368362491525175
583,0.00182867050170898,0.0000435373477066817
584,0.00202274322509766,0.0000329043553202583
585,0.00198078155517578,0.0000423902601670226
586,0.00187110900878906,0.0000513823844562423
587,0.0019993782043457,0.0000426782575857646
588,0.00181770324707031,0.0000429868103065015
589,0.00177145004272461,0.0000543416563036036
590,0.00178050994873047,0.00005306514188737
591,0.00177001953125,0.0000429702778075221
592,0.00199604034423828,0.0000314748646368203
593,0.00188207626342773,0.0000386289604897035
594,0.00182104110717773,0.0000386738159103234
595,0.00184297561645508,0.0000344512784351128
596,0.00173854827880859,0.0000390941044520852
597,0.00179767608642578,0.0000389783388475147
598,0.00182628631591797,0.0000397516062683208
599,0.00186061859130859,0.0000424150605743492
600,0.00177526473999023,0.0000542579087580903
601,0.0017242431640625,0.0000463047919704827
602,0.00172567367553711,0.0000401698161708733
603,0.00175094604492187,0.000054239047739818
604,0.00163364410400391,0.0000476049726724288
605,0.00175666809082031,0.0000348401258085228
606,0.00172090530395508,0.0000458941831005671
607,0.00174236297607422,0.0000407974527104735
608,0.00165176391601562,0.0000378289977374612
609,0.00171661376953125,0.0000355147662402904
610,0.00164413452148437,0.0000393441225905156
611,0.00159358978271484,0.000034685601626453
612,0.00159358978271484,0.0000376195507599112
613,0.00163507461547852,0.0000318536501309571
614,0.0016937255859375,0.0000488275196365739
615,0.00161361694335937,0.000047853881475033
616,0.00156927108764648,0.0000272945021495126
617,0.0016326904296875,0.0000316477651711371
618,0.00148391723632812,0.0000524802565794401
619,0.00150966644287109,0.0000403315171314058
620,0.00159311294555664,0.000038746503526548
621,0.00147628784179687,0.0000383616901463877
622,0.00155878067016602,0.0000344182633068439
623,0.00153446197509766,0.000040035867981562
624,0.00157070159912109,0.000040578814146792
625,0.00152921676635742,0.0000381938824712141
626,0.00148487091064453,0.0000374020926976618
627,0.00153779983520508,0.000042358736009723
628,0.00143957138061523,0.0000418918473033802
629,0.00156211853027344,0.0000389214222843993
630,0.00145149230957031,0.0000344735457724168
631,0.00144624710083008,0.0000325378038023858
632,0.00146627426147461,0.0000498893369192189
633,0.00140762329101562,0.0000483560841907014
634,0.00143575668334961,0.0000388102681383895
635,0.00146102905273437,0.0000447960530920331
636,0.00138044357299805,0.0000472273445078207
637,0.00140666961669922,0.0000512771799422076
638,0.00141572952270508,0.0000439389335121881
639,0.00145578384399414,0.0000431662746858851
640,0.00146245956420898,0.0000517966763739954
641,0.00135326385498047,0.0000553562555087358
642,0.00137996673583984,0.0000446766136796245
643,0.00134563446044922,0.0000438534667603242
644,0.00137710571289062,0.0000653458309674297
645,0.00137138366699219,0.0000440461790138416
646,0.00131559371948242,0.0000590729843825839
647,0.00135278701782227,0.000038710543886758
648,0.00134611129760742,0.0000543165455981293
649,0.00130319595336914,0.0000395386861884654
650,0.00136518478393555,0.0000387142147680012
651,0.00138330459594727,0.0000376927633771661
652,0.00132083892822266,0.0000579617092700989
653,0.00136995315551758,0.0000483725386349146
654,0.00136232376098633,0.0000463465113240707
655,0.00206565856933594,0.0000254337985097782
656,0.00227022171020508,0.0000319418616416239
657,0.0000128746032714844,0.0000516295969774967
658,0.00147104263305664,0.0000682543715534498
659,0.00124311447143555,0.0000654344991749116
660,0.00132083892822266,0.0000584733413144623
661,0.00136327743530273,0.0000360643073821493
662,0.00132608413696289,0.0000309980830443287
663,0.00130939483642578,0.0000476694085591552
664,0.00132083892822266,0.0000540984312477503
665,0.00126981735229492,0.0000540206204839982
666,0.00135707855224609,0.0000627145105842103
667,0.00131940841674805,0.0000588261307023356
668,0.00130939483642578,0.0000309861612333298
669,0.00122308731079102,0.000027733010635273
670,0.00127744674682617,0.0000361084131250648
671,0.00129175186157227,0.0000387120122810264
672,0.0012965202331543,0.0000375590618342454
673,0.00125265121459961,0.0000502413062920645
674,0.00123691558837891,0.0000470657841006148
675,0.00125551223754883,0.0000347821575468598
676,0.00124645233154297,0.0000493151987985531
677,0.0013117790222168,0.0000432333817666521
678,0.00125360488891602,0.0000334373026061199
679,0.00122547149658203,0.0000447376438593837
680,0.00121784210205078,0.0000383794673352838
681,0.00126409530639648,0.0000480672196306007
682,0.00123214721679687,0.000035766760287486
683,0.00125980377197266,0.0000352400081136777
684,0.00121164321899414,0.0000383653944067015
685,0.00130987167358398,0.0000415990889368935
686,0.00126838684082031,0.0000391863256392567
687,0.00125217437744141,0.0000353334403708431
688,0.00123214721679687,0.0000375295381337567
689,0.00123500823974609,0.0000513026703017799
690,0.00126075744628906,0.0000387758336117643
691,0.00129556655883789,0.0000310969490731819
692,0.00121402740478516,0.0000394314346188378
693,0.00115346908569336,0.0000444393300811589
694,0.0012354850769043,0.0000428636557519192
695,0.00124120712280273,0.0000433463074208767
696,0.0011744499206543,0.0000496483435320865
697,0.00127744674682617,0.0000387978166248187
698,0.00119256973266602,0.0000402821577724012
699,0.00123310089111328,0.0000532223754512309
700,0.00124597549438477,0.0000552328942155111
701,0.00120735168457031,0.0000468187560504386
702,0.00128555297851562,0.0000535301479987991
703,0.0012202262878418,0.0000423486701687136
704,0.00119113922119141,0.0000484512075403044
705,0.00118255615234375,0.0000509267889125481
706,0.00121450424194336,0.0000539395360655948
707,0.00122833251953125,0.0000445568540982482
708,0.00122308731079102,0.0000492817604621313
709,0.00116777420043945,0.000047539253749591
710,0.00124788284301758,0.0000388336954509513
711,0.00115108489990234,0.0000362537381644928
712,0.00116443634033203,0.0000456021889343461
713,0.00118255615234375,0.0000402383889194294
714,0.00121879577636719,0.0000390846522111347
715,0.00114059448242187,0.000037674662161118
716,0.00116777420043945,0.0000393361755234295
717,0.00111913681030273,0.0000383038573020566
718,0.00117158889770508,0.0000290596942619182
719,0.00110864639282227,0.0000320023105043242
720,0.00109148025512695,0.0000407695770263672
721,0.00117349624633789,0.0000369479572826586
722,0.00112628936767578,0.0000297541228579781
723,0.00124359130859375,0.000056465452835364
724,0.00111579895019531,0.0000503136643025255
725,0.00114297866821289,0.0000507030616570529
726,0.0011286735534668,0.0000418694523210815
727,0.00116109848022461,0.0000463575483977713
728,0.00108003616333008,0.0000495061697932954
729,0.0011143684387207,0.0000485426316288676
730,0.00113964080810547,0.0000493198092037236
731,0.00105381011962891,0.000049646053637773
732,0.00114345550537109,0.000051166204657502
733,0.00104999542236328,0.0000489612158774473
734,0.0010838508605957,0.0000396133742702066
735,0.00110864639282227,0.0000435086144907262
736,0.00107097625732422,0.0000347527282459318
737,0.0011143684387207,0.0000474830218677696
738,0.00110006332397461,0.0000432202317277901
739,0.0010838508605957,0.0000330121496785564
740,0.00107669830322266,0.000039511361095174
741,0.00107145309448242,0.0000534855297962825
742,0.00106382369995117,0.0000419562509679011
743,0.0011138916015625,0.0000531774990149732
744,0.00113487243652344,0.0000452668925716622
745,0.00110530853271484,0.0000494797539437597
746,0.00107383728027344,0.0000429596936692274
747,0.00109243392944336,0.0000461054930753243
748,0.00107908248901367,0.0000475547955095844
749,0.00105762481689453,0.0000339024177510327
750,0.00113439559936523,0.0000443612348899484
751,0.00109672546386719,0.0000493025179613159
752,0.001129150390625,0.0000457465551575144
753,0.00119113922119141,0.0000420469263253433
754,0.00118112564086914,0.0000438677227824034
755,0.00109767913818359,0.000047552404800209
756,0.0011591911315918,0.0000492886805998417
757,0.00118637084960937,0.0000430957657367772
758,0.00113153457641602,0.0000425468625992716
759,0.00113821029663086,0.000040128757928795
760,0.00110673904418945,0.0000393065404816649
761,0.00108957290649414,0.000049939444921816
762,0.00113058090209961,0.0000328178649085483
763,0.00117254257202148,0.0000396420629865033
764,0.00115776062011719,0.0000456084210403343
765,0.00117111206054687,0.0000392739884756823
766,0.00111246109008789,0.0000506604417821784
767,0.00114297866821289,0.0000631714759816815
768,0.0012059211730957,0.0000529514728664672
769,0.00118112564086914,0.0000532906859243336
770,0.00117874145507812,0.0000348344149143009
771,0.00115108489990234,0.0000329302581466899
772,0.00113153457641602,0.0000436090979201266
773,0.00115966796875,0.0000489228882482748
774,0.00116968154907227,0.0000647709169736161
775,0.00113439559936523,0.0000472934968609329
776,0.00111913681030273,0.0000381775078155971
777,0.00110912322998047,0.0000438482816031366
778,0.0011906623840332,0.0000616356988222371
779,0.00113201141357422,0.0000534919061037776
780,0.00114727020263672,0.0000411173559918212
781,0.0011448860168457,0.000049728423402724
782,0.00116539001464844,0.0000493727979197745
783,0.00112104415893555,0.0000419995830227943
784,0.00113439559936523,0.0000542620992051739
785,0.00108861923217773,0.000050368993146534
786,0.00113582611083984,0.0000427108768123654
787,0.00114107131958008,0.0000439272887468483
788,0.00123119354248047,0.0000553603628176273
789,0.00113677978515625,0.0000494498755565091
790,0.00124073028564453,0.0000445517508048976
791,0.00113725662231445,0.0000607588593910083
792,0.00115013122558594,0.000047717082747047
793,0.00112581253051758,0.0000532394612864869
794,0.0011444091796875,0.0000449480677354526
795,0.00107288360595703,0.000038839550071134
796,0.00106287002563477,0.0000456134061120554
797,0.00110483169555664,0.0000451033510306119
798,0.00110197067260742,0.0000460857624686327
799,0.00111961364746094,0.0000383728018545736
800,0.00113821029663086,0.0000427082149522268
801,0.00114631652832031,0.0000440435978553516
802,0.00121831893920898,0.000056721578852512
803,0.00112485885620117,0.0000429067338146938
804,0.00113916397094727,0.0000387604380843555
805,0.00114011764526367,0.000057077228574543
806,0.00110340118408203,0.0000675006746796425
807,0.00112342834472656,0.0000579930833834395
808,0.00108718872070312,0.0000542882821711571
809,0.00114870071411133,0.0000341180235569358
810,0.00113725662231445,0.000044275299466337
811,0.00106906890869141,0.0000666412982223277
812,0.00115346908569336,0.0000633978269407557
813,0.00110483169555664,0.0000468138993329929
814,0.00107526779174805,0.0000428563613342473
815,0.00113630294799805,0.0000386480855593838
816,0.00113677978515625,0.0000426509447771509
817,0.00103759765625,0.0000397608999565753
818,0.00108575820922852,0.0000393989858023141
819,0.00110626220703125,0.0000491119124968862
820,0.00105381011962891,0.0000369187147317516
821,0.00110816955566406,0.0000372604839240767
822,0.00110101699829102,0.0000505897034068102
823,0.00105667114257812,0.0000540258814982668
824,0.00113201141357422,0.0000505492370331249
825,0.00118494033813477,0.000044728748811307
826,0.00113534927368164,0.0000488461427675058
827,0.00112628936767578,0.0000344347748277298
828,0.00107049942016602,0.0000338780972048103
829,0.00111579895019531,0.0000322297476915722
830,0.00106048583984375,0.0000355131656469083
831,0.00107765197753906,0.0000526424767303184
832,0.00109386444091797,0.0000540437651159321
833,0.00104951858520508,0.0000578998918024465
834,0.00109004974365234,0.0000404722121695002
835,0.00106430053710937,0.0000453384132148947
836,0.00107574462890625,0.0000429001092359493
837,0.00107479095458984,0.0000526435565206212
838,0.00108146667480469,0.0000417715882550731
839,0.00108194351196289,0.0000313717540815943
840,0.00116825103759766,0.0000431662746858851
841,0.00101137161254883,0.0000431662746858851
842,0.00106668472290039,0.0000411788298526896
843,0.00111103057861328,0.0000273958405771511
844,0.00111961364746094,0.0000307920156306514
845,0.00114822387695312,0.0000428941462403279
846,0.00107097625732422,0.0000584052528959261
847,0.0011439323425293,0.0000552205429289606
848,0.00103950500488281,0.0000402193134019219
849,0.00105476379394531,0.0000564342367001925
850,0.00113964080810547,0.000054052178888624
851,0.00114631652832031,0.0000553459859029652
852,0.00112581253051758,0.0000524011277692589
853,0.00115776062011719,0.0000322350383399116
854,0.00106191635131836,0.000036613362956637
855,0.00118017196655273,0.0000489019696073092
856,0.00112390518188477,0.0000446753413309925
857,0.00107336044311523,0.0000445198419678086
858,0.00112247467041016,0.0000484183465295692
859,0.00108957290649414,0.0000462974258291252
860,0.0011439323425293,0.0000566262947572785
861,0.00111246109008789,0.0000587545813313045
862,0.00112438201904297,0.0000669170917193733
863,0.00110244750976562,0.0000479713348694921
864,0.00118350982666016,0.0000405697078263413
865,0.00104475021362305,0.0000468818475923465
866,0.00122308731079102,0.0000584840337159856
867,0.00120735168457031,0.0000499542399400639
868,0.00117921829223633,0.0000521128696148462
869,0.00118875503540039,0.0000406816437737271
870,0.00116682052612305,0.0000456358321960089
871,0.00114345550537109,0.0000501586455038348
872,0.001190185546875,0.0000657378435566156
873,0.00116300582885742,0.0000823355702800434
874,0.00117969512939453,0.0000587274858644627
875,0.00120639801025391,0.0000587410351601737
876,0.00116634368896484,0.0000601259324477356
877,0.00127649307250977,0.0000657240069234258
878,0.00128078460693359,0.0000519194434602032
879,0.00117683410644531,0.0000462200104676198
880,0.00119447708129883,0.0000460203444132699
881,0.00128078460693359,0.0000463416051142095
882,0.00124931335449219,0.0000467373394619669
883,0.00122165679931641,0.0000442213443446659
884,0.00118827819824219,0.0000703831674967935
885,0.00122165679931641,0.0000660742154110475
886,0.00119256973266602,0.0000638516826275752
887,0.00125312805175781,0.0000578350597773132
888,0.0011744499206543,0.0000692990577066998
889,0.00121545791625977,0.0000527395693165678
890,0.00126934051513672,0.0000387406348448488
891,0.00116109848022461,0.0000364632358294529
892,0.0011749267578125,0.0000421347084701052
893,0.00131702423095703,0.0000487949120544735
894,0.00117826461791992,0.0000596342013509854
895,0.0011744499206543,0.0000567526369386578
896,0.00114679336547852,0.000056386876048957
897,0.00120067596435547,0.0000490041536320514
898,0.00123071670532227,0.0000505301166473003
899,0.00127696990966797,0.0000440539215819172
900,0.00117254257202148,0.000052827876091986
901,0.00122594833374023,0.0000539184552284018
902,0.00128507614135742,0.0000632470163096472
903,0.00123262405395508,0.0000552668460206176
904,0.00109624862670898,0.0000804485195501829
905,0.00124216079711914,0.0000464212667751886
906,0.00113677978515625,0.0000742305439202171
907,0.00122690200805664,0.0000719866198472098
908,0.00121164321899414,0.000051938052384148
909,0.00120878219604492,0.0000615046001397379
910,0.00115442276000977,0.0000692777275988159
911,0.00122976303100586,0.000059964050092195
912,0.00101375579833984,0.0000734747111328017
913,0.0010228157043457,0.0000729311482813998
914,0.00115013122558594,0.0000556481425808544
915,0.00114870071411133,0.0000750484730984202
916,0.00121545791625977,0.0000963635870290308
917,0.0012054443359375,0.0000828133129316704
918,0.00107097625732422,0.0000519654063430812
919,0.00115013122558594,0.000052620876271188
920,0.00114536285400391,0.0000612489858784444
921,0.00108098983764648,0.0000736709551507916
922,0.00113105773925781,0.0000710247306463287
923,0.0010528564453125,0.0000723913563322004
924,0.00101947784423828,0.0000655317221511561
925,0.00105047225952148,0.0000695447010947131
926,0.000995635986328125,0.0000631858715782865
927,0.000947475433349609,0.0000761925500388102
928,0.00102710723876953,0.0000712724019735356
929,0.000936031341552734,0.0000750484730984202
930,0.000825881958007813,0.0000630796268240116
931,0.000896930694580078,0.0000793915968913703
932,0.000797271728515625,0.0000685021015283285
933,0.000783443450927734,0.0000999062040346194
934,0.000807762145996094,0.000077643967123672
935,0.000732421875,0.0000729124399916654
936,0.000704765319824219,0.0000585471762269065
937,0.000746726989746094,0.0000714094490887961
938,0.000653266906738281,0.0000902218243046975
939,0.000586032867431641,0.0000865456158129974
940,0.000575065612792969,0.0000702182180917922
941,0.000597953796386719,0.0000614065552978716
942,0.000452518463134766,0.0000641926251220317
943,0.000464916229248047,0.000093880021343897
944,0.000434398651123047,0.0000933602831745966
945,0.000355720520019531,0.000104654622191762
946,0.000258922576904297,0.000103395625980937
947,0.000323772430419922,0.0000839179210647391
948,0.0003662109375,0.00010260534060356
949,0.000209331512451172,0.0000918007511223517
950,0.0000777244567871094,0.0000906793339120279
951,0.000132083892822266,0.000101466644884265
952,0.000125885009765625,0.000109689130773081
953,-0.0000205039978027344,0.0000927322619440669
954,-0.00005340576171875,0.000112936945671749
955,-0.000148296356201172,0.0000791923021263761
956,-0.000129222869873047,0.000119165412457355
957,-0.000264644622802734,0.000120329363217068
958,-0.000550270080566406,0.000138594834324531
959,-0.000379085540771484,0.000120087251576974
960,-0.000467300415039063,0.00012094192218277
961,-0.000654220581054688,0.000107944390182
962,-0.000550270080566406,0.000103703038051515
963,-0.000438213348388672,0.000125483392414274
964,-0.000532150268554688,0.000131617421281033
965,-0.000482559204101563,0.000148464150883191
966,-0.000365257263183594,0.000150807242904755
967,-0.000509738922119141,0.000168033517539033
968,-0.00049591064453125,0.000162332065498991
969,-0.000253200531005859,0.000163837805857275
970,-0.000481128692626953,0.000134207425554293
971,-0.000395774841308594,0.000125410892181498
972,-0.000311851501464844,0.000150623189900246
973,-0.000293731689453125,0.000170104597048127
974,0.0000796318054199219,0.000157336031451335
975,-0.000182151794433594,0.000105502847865107
976,0.00000858306884765625,0.000112266547008311
977,0.000140190124511719,0.000127264612713717
978,0.000105857849121094,0.000163036474919006
979,0.000225543975830078,0.00016268185616992
980,0.0000185966491699219,0.000196563358540491
981,0.000181198120117187,0.000182628009087918
982,0.000363826751708984,0.000158680058036867
983,0.000208377838134766,0.000148077708535227
984,0.000269412994384766,0.00013809190929259
985,0.000693321228027344,0.000156890294820242
986,0.000367641448974609,0.00012306464063216
987,0.000530242919921875,0.000148053138458559
988,0.000432968139648438,0.000156655339959859
989,0.000804901123046875,0.000183001130894546
990,0.00103616714477539,0.000189231671234505
991,0.000356197357177734,0.000269010547062134
992,0.000818252563476563,0.000192882840788711
993,0.00092315673828125,0.000198455936080468
994,0.000936985015869141,0.000219199920380149
995,0.000789642333984375,0.000161582376526017
996,0.000989913940429688,0.000183264345542363
997,0.000901222229003906,0.000161863565616147
998,0.0012054443359375,0.00021840182950054
999,0.000857830047607422,0.000170843507249462
1000,0.000963211059570313,0.000195519516429741
1001,0.0013127326965332,0.000202295881324793
1002,0.00142908096313477,0.000246904051952243
1003,0.000905036926269531,0.000159363515436587
1004,0.00171947479248047,0.000219179173617491
1005,0.00118732452392578,0.00022462218963307
1006,0.00132656097412109,0.00028631202639812
1007,0.00152921676635742,0.00027125287348419
1008,0.00149250030517578,0.000167116288276581
1009,0.00143003463745117,0.000155840421654468
1010,0.00114345550537109,0.000208743601487425
1011,0.00165176391601562,0.000232262284370406
1012,0.00126075744628906,0.000217345703454395
1013,0.00157308578491211,0.000192731893078987
1014,0.00170040130615234,0.000175931588098148
1015,0.00144004821777344,0.000204944588406909
1016,0.00147867202758789,0.000245441013415916
1017,0.00152254104614258,0.000304770200155241
1018,0.00132417678833008,0.000229262988301342
1019,0.00133419036865234,0.000307071282768366
1020,0.00150442123413086,0.000327475707916556
1021,0.00144481658935547,0.000339497341029764
1022,0.00214767456054687,0.000356403799121747
1023,0.00164508819580078,0.000270588176887919
1024,0.00162887573242187,0.000219875192705866
1025,0.002044677734375,0.000302174833629796
1026,0.00146675109863281,0.000242705897836103
1027,0.00185918807983398,0.000308672423383969
1028,0.00175666809082031,0.000303628096444501
1029,0.00111770629882812,0.000279789256353777
1030,0.00171613693237305,0.000262466696346582
1031,0.00137519836425781,0.000389117820140837
1032,0.00167989730834961,0.00040723568348081
1033,0.00180292129516602,0.000371663900998298
1034,0.00161647796630859,0.000414882307743699
1035,0.00133848190307617,0.000268428404333928
1036,0.00142908096313477,0.000322764869711495
1037,0.00169849395751953,0.000372182322335202
1038,0.00148344039916992,0.000352782163651463
1039,0.00127029418945312,0.000461349745949543
1040,0.001312255859375,0.000457572897258723
1041,0.00154685974121094,0.000362536754471335
1042,0.00131559371948242,0.000287971746717722
1043,0.00197982788085937,0.000390051629547391
1044,0.00151538848876953,0.000411519031722859
1045,0.00168609619140625,0.000534071240932536
1046,0.00170421600341797,0.000554418709432495
1047,0.00165557861328125,0.000312787730032873
1048,0.00177145004272461,0.000415714499689492
1049,0.00193071365356445,0.000490956132299688
1050,0.00207662582397461,0.000484038336430412
1051,0.00102758407592773,0.000648835038786172
1052,0.00178003311157227,0.000597533088659707
1053,0.00212907791137695,0.000560981032414343
1054,0.000763416290283203,0.000498077354246505
1055,0.00132417678833008,0.000529680021902764
1056,0.000908374786376953,0.000484654247540124
1057,0.00103282928466797,0.000372299600523818
1058,0.00191307067871094,0.000480735105540783
1059,0.00130701065063477,0.00067481336919276
1060,0.000670433044433594,0.000643226285045105
1061,0.000640869140625,0.00071618845841683
1062,0.00177001953125,0.000682734903600986
1063,0.00126981735229492,0.000957557402216387
1064,0.000631332397460938,0.000952513942500695
1065,0.000759601593017578,0.000908330605901807
1066,0.000220775604248047,0.000803227062271231
1067,0.000881195068359375,0.000837462898489461
1068,0.00213623046875,0.00103428254953262
1069,0.00186920166015625,0.000817449660399101
1070,0.00130891799926758,0.000630729941031099
1071,0.00197029113769531,0.000746531479186239
1072,0.000460147857666016,0.00114163380096835
1073,0.00181865692138672,0.000866163114842511
1074,0.000354290008544922,0.000854219665666407
1075,0.000827312469482422,0.00104302501526699
1076,0.000385284423828125,0.000947643283399917
1077,0.000637531280517578,0.00107841970728056
1078,0.000866413116455078,0.00131059141836635
1079,0.00144195556640625,0.00138792086599715
1080,0.000435829162597656,0.00121635616704093
1081,0.00151252746582031,0.000979657038529939
1082,0.00170803070068359,0.00125514554639014
1083,0.00206470489501953,0.00203239967749045
1084,0.00150060653686523,0.00172609887651801
1085,-0.00143623352050781,0.00170901843445762
1086,0.000739574432373047,0.00171595242794451
1087,0.00192975997924805,0.00136271750782117
1088,0.000763416290283203,0.00168324570476919
1089,-0.000118255615234375,0.00195178343474444
1090,-0.00055694580078125,0.0013700659287558
1091,0.00210380554199219,0.00184722751659596
1092,-0.00123357772827148,0.00236250210363305
1093,0.00214052200317383,0.00220213456582989
1094,-0.00105714797973633,0.00200529749577113
1095,0.00145864486694336,0.00136666287847126
1096,0.00128412246704102,0.0018716445840742
1097,-0.00197267532348633,0.00269299255263187
1098,0.00236225128173828,0.00208180440987455
1099,0.000840663909912109,0.00253704614538467
1100,0.00223588943481445,0.00213601247492641
