Wavelength (nm),Absorbance (AU),Std.Dev.
190,0.565210819244385,0.000145375129871301
191,0.543647766113281,0.0000994339826365891
192,0.525858879089356,0.0000861770212256542
193,0.510381698608398,0.0000619906645283471
194,0.497700214385986,0.0000471827898313006
195,0.486740112304688,0.0000493071295521931
196,0.477649688720703,0.0000543479321671516
197,0.469491958618164,0.0000504603220803339
198,0.462026596069336,0.0000544524234044498
199,0.455179214477539,0.0000467665199056809
200,0.448767185211182,0.0000476348149370367
201,0.442452430725098,0.0000521172325324825
202,0.436436176300049,0.0000460005772845563
203,0.430437088012695,0.0000609969600727391
204,0.424395084381104,0.0000690393681772688
205,0.418270587921143,0.0000697715586126582
206,0.411999702453613,0.000074336144871098
207,0.405730247497559,0.0000733399731816497
208,0.399301052093506,0.0000550111800756146
209,0.392919063568115,0.0000403892613756116
210,0.386443614959717,0.0000591960251967425
211,0.380013942718506,0.0000868655443387025
212,0.373780727386475,0.0000498391785383707
213,0.367506980895996,0.0000462249295832646
214,0.361596584320068,0.0000444406091868677
215,0.355586051940918,0.0000621536704127802
216,0.349823474884033,0.0000476801394075055
217,0.344107151031494,0.0000383505752186919
218,0.338695049285889,0.0000413901794829043
219,0.333295345306396,0.0000389323742394867
220,0.32810115814209,0.0000341363455373677
221,0.323027610778809,0.0000398009094973092
222,0.318089008331299,0.000053528024165832
223,0.313328742980957,0.000052116141837315
224,0.308665752410889,0.0000419603152489905
225,0.304059982299805,0.0000315109638167511
226,0.299526214599609,0.0000469387996762265
227,0.295172214508057,0.0000592209866253015
228,0.290806770324707,0.000056330394350191
229,0.2865309715271,0.0000684871634010231
230,0.282344818115234,0.0000665559459776889
231,0.278224468231201,0.0000410869304442213
232,0.274057865142822,0.0000485051451564558
233,0.270002365112305,0.0000559069962480582
234,0.266147613525391,0.0000446282389305806
235,0.262221336364746,0.0000417273383182466
236,0.258394718170166,0.0000445109033942764
237,0.254788875579834,0.0000547999800950373
238,0.251460552215576,0.0000372543811504833
239,0.248106002807617,0.0000297111068995909
240,0.244940280914307,0.0000439143464971503
241,0.241927623748779,0.000047144222100461
242,0.239078044891357,0.0000433725270624111
243,0.236434459686279,0.0000377462619837535
244,0.233885288238525,0.0000523512043505686
245,0.231534481048584,0.00005136246751598
246,0.229349136352539,0.0000465472206828567
247,0.227263927459717,0.0000371351766060591
248,0.225289821624756,0.0000462753203697647
249,0.223450183868408,0.0000455173475791234
250,0.221744537353516,0.000035243234038997
251,0.220088481903076,0.0000398337444145111
252,0.21851110458374,0.0000253728228683385
253,0.217012882232666,0.0000264719789157524
254,0.21548318862915,0.0000357309835802731
255,0.214043617248535,0.0000484734933961888
256,0.212536811828613,0.0000394213422936819
257,0.211100578308105,0.000044149301610978
258,0.209540843963623,0.0000416407450573364
259,0.208027362823486,0.0000490679105859255
260,0.206437587738037,0.0000643465199511307
261,0.204727649688721,0.0000616522970568373
262,0.203034400939941,0.0000406313107587541
263,0.201126575469971,0.0000423567230328885
264,0.199251651763916,0.0000548725422871676
265,0.197273254394531,0.0000526629889601685
266,0.195265293121338,0.0000610183901408659
267,0.193044185638428,0.0000590691352274106
268,0.190750122070312,0.0000479310297894633
269,0.188326835632324,0.0000486093327994334
270,0.1859450340271,0.0000674939374129644
271,0.183622360229492,0.0000546732843737639
272,0.181098937988281,0.000051617484720236
273,0.178504943847656,0.0000608401984659657
274,0.175875663757324,0.0000574840988901843
275,0.173279285430908,0.000059857784603462
276,0.170680522918701,0.0000462519753676278
277,0.167980670928955,0.0000408434059954374
278,0.165351390838623,0.0000375212067359997
279,0.162694454193115,0.0000405514890506417
280,0.159976005554199,0.0000525830541165823
281,0.157312870025635,0.0000544482476051028
282,0.154691219329834,0.0000428331435590646
283,0.152076244354248,0.0000294705038432377
284,0.149444103240967,0.0000382659962610986
285,0.146841526031494,0.0000326285211409293
286,0.144313335418701,0.0000255992061270819
287,0.141675472259521,0.0000372391198409451
288,0.139039993286133,0.0000421428022192057
289,0.136514186859131,0.0000420570643850919
290,0.134045600891113,0.0000410924640375722
291,0.131653785705566,0.0000390359005199276
292,0.129281044006348,0.0000442483301294147
293,0.126938819885254,0.0000353792606383315
294,0.124640941619873,0.0000373267871601249
295,0.122424602508545,0.0000372116337111028
296,0.120316505432129,0.0000348939254312052
297,0.118100166320801,0.0000440668228389899
298,0.116086006164551,0.0000431689083013774
299,0.114009857177734,0.0000403596953763939
300,0.112129688262939,0.0000311772747769881
301,0.110293865203857,0.0000448847908680074
302,0.108433723449707,0.0000460931624358924
303,0.106532096862793,0.0000417947157137434
304,0.10483455657959,0.0000581780416707881
305,0.103141307830811,0.000059502514124735
306,0.101437091827393,0.000045070571511906
307,0.0998973846435547,0.0000589496867560519
308,0.0982732772827148,0.0000529890320542702
309,0.0967659950256348,0.000054472254079799
310,0.095242977142334,0.0000580097439794371
311,0.0936894416809082,0.0000523077539514567
312,0.0922660827636719,0.0000597380099775807
313,0.0909037590026856,0.0000551247266248194
314,0.0894732475280762,0.0000533130812266382
315,0.0881137847900391,0.0000427474605809327
316,0.0868220329284668,0.0000500815236770438
317,0.0855216979980469,0.0000547532821912898
318,0.0841236114501953,0.0000456308495742891
319,0.0828719139099121,0.0000388373546919913
320,0.0816397666931152,0.0000584577852392139
321,0.0803999900817871,0.0000572234391390076
322,0.0792007446289063,0.0000523175334375162
323,0.077847957611084,0.0000371007195039997
324,0.0766491889953613,0.0000336288539536478
325,0.0754976272583008,0.0000321962200630089
326,0.0743241310119629,0.0000382585681340246
327,0.073185920715332,0.0000561383365311168
328,0.0720558166503906,0.0000454723674826894
329,0.0709333419799805,0.0000566553984738622
330,0.0698485374450684,0.0000673252866311079
331,0.0687761306762695,0.0000542212285316461
332,0.0676565170288086,0.00004362734276959
333,0.0665173530578613,0.0000418538366106803
334,0.0654349327087402,0.0000503904308426937
335,0.0644307136535645,0.0000476336216054166
336,0.0633711814880371,0.0000387391675355085
337,0.0623540878295898,0.0000391587546685177
338,0.0614171028137207,0.000051458661313834
339,0.060429573059082,0.0000510382847744258
340,0.0594038963317871,0.000037520449244469
341,0.0584416389465332,0.0000402284990394522
342,0.0574355125427246,0.0000484277376650945
343,0.0565266609191895,0.000038370579770363
344,0.0555896759033203,0.0000449037832908384
345,0.0547475814819336,0.0000522087695814934
346,0.0537796020507813,0.0000488822048933242
347,0.0529365539550781,0.0000569406263135801
348,0.0520896911621094,0.0000483878127515254
349,0.0512008666992188,0.0000410377871063872
350,0.0503726005554199,0.0000362247197974222
351,0.0495672225952148,0.0000517329860611638
352,0.0487699508666992,0.0000606117988594137
353,0.0479259490966797,0.000063048980703688
354,0.0471749305725098,0.0000540868718660326
355,0.046544075012207,0.0000501801730636322
356,0.0457429885864258,0.0000510382847744258
357,0.045036792755127,0.0000474399055599514
358,0.0442628860473633,0.0000564573987108948
359,0.0434174537658691,0.0000633063061895291
360,0.0425796508789063,0.0000512649844202707
361,0.0417532920837402,0.000047218918469151
362,0.041111946105957,0.0000546025394945087
363,0.0403709411621094,0.0000552493583023857
364,0.0397987365722656,0.0000557491773000601
365,0.0390472412109375,0.0000529922501745457
366,0.0386309623718262,0.0000609578074649263
367,0.0376896858215332,0.0000572462818370181
368,0.0369977951049805,0.000064586356528926
369,0.0365471839904785,0.0000469569613328071
370,0.035954475402832,0.000050695213319749
371,0.0355119705200195,0.0000484641111269833
372,0.0347819328308105,0.0000526608301543318
373,0.0343165397644043,0.0000517549570916545
374,0.0338039398193359,0.0000532885525475268
375,0.0331435203552246,0.0000485051451564558
376,0.0326147079467773,0.0000558591885736579
377,0.0322117805480957,0.0000592977251156557
378,0.031672477722168,0.0000728999651312308
379,0.0309867858886719,0.000074098714662288
380,0.0304932594299316,0.0000642793468398242
381,0.0300211906433105,0.000077611747885498
382,0.0296206474304199,0.0000697210284440846
383,0.0290393829345703,0.0000836913739403815
384,0.0285158157348633,0.0000865351063271283
385,0.0280594825744629,0.0000640223808305748
386,0.0276494026184082,0.0000837361893288582
387,0.0272421836853027,0.0000536828431568713
388,0.026761531829834,0.0000416796320017962
389,0.0260825157165527,0.0000491084400952488
390,0.025792121887207,0.0000632667857766037
391,0.0253200531005859,0.0000586974727223523
392,0.025090217590332,0.0000644594953831445
393,0.0243673324584961,0.0000588667011186509
394,0.0239248275756836,0.0000597646473053906
395,0.0234837532043457,0.0000513425428494841
396,0.0231099128723145,0.0000635124899215767
397,0.0230374336242676,0.0000616154060189142
398,0.022559642791748,0.0000628304206021685
399,0.0217938423156738,0.0000770781860558239
400,0.0215835571289062,0.0000643288496171572
401,0.0212535858154297,0.0000714762835738819
402,0.0210132598876953,0.0000854430451887765
403,0.0205373764038086,0.000098510448521551
404,0.0203108787536621,0.0000829312904446017
405,0.0200018882751465,0.0000623946477747813
406,0.0192584991455078,0.0000687108943101694
407,0.0192432403564453,0.0000635858372338648
408,0.019139289855957,0.0000909597345094428
409,0.0185251235961914,0.0000668593034604306
410,0.018101692199707,0.0000865981441109951
411,0.0180196762084961,0.000103654790817378
412,0.0177931785583496,0.0000697454830969899
413,0.0172538757324219,0.0000518054550997691
414,0.016871452331543,0.0000562910254034947
415,0.0167055130004883,0.0000617609972331702
416,0.0164055824279785,0.0000600483591117734
417,0.0161514282226562,0.0000658674206351844
418,0.0159478187561035,0.0000699229300233895
419,0.0157647132873535,0.0000610193217122302
420,0.0155692100524902,0.0000612768216887065
421,0.0155482292175293,0.0000547615869512635
422,0.0146617889404297,0.0000499383066619341
423,0.0145387649536133,0.0000593025179742013
424,0.0142474174499512,0.0000624547468350376
425,0.0140838623046875,0.0000541950131703827
426,0.0140047073364258,0.0000606989541662963
427,0.0141844749450684,0.0000688662480638733
428,0.0133638381958008,0.0000616449206154306
429,0.0137434005737305,0.0000575522894159675
430,0.0130958557128906,0.0000597503787851751
431,0.0124897956848145,0.0000701096577921458
432,0.0125656127929687,0.0000582132051926874
433,0.0127286911010742,0.0000661326897014674
434,0.0121359825134277,0.0000522338053226171
435,0.0119137763977051,0.0000578773070682061
436,0.0120391845703125,0.0000681143145558931
437,0.0117478370666504,0.0000594212571893085
438,0.0116949081420898,0.0000569026785410788
439,0.0113615989685059,0.0000441930558483982
440,0.0113611221313477,0.0000520124215012489
441,0.0114483833312988,0.0000632470163096472
442,0.010528564453125,0.0000594040355773828
443,0.0109477043151855,0.0000600994552492239
444,0.0105104446411133,0.0000559069962480582
445,0.0103797912597656,0.0000627290110492791
446,0.010277271270752,0.0000494107765580719
447,0.0099334716796875,0.0000681310031055876
448,0.00998401641845703,0.0000697748173669447
449,0.00993537902832031,0.0000520003984139414
450,0.00954484939575195,0.0000616154060189142
451,0.00957965850830078,0.0000427992893958479
452,0.00940275192260742,0.0000418456869701907
453,0.00925254821777344,0.0000585141563355562
454,0.00919246673583984,0.0000545244056035484
455,0.0091099739074707,0.0000576480150593087
456,0.00900459289550781,0.0000751150967257835
457,0.00895309448242188,0.0000743284976702722
458,0.00854682922363281,0.0000808207334050686
459,0.00854635238647461,0.0000744034063468627
460,0.00822639465332031,0.0000553192760056606
461,0.00831937789916992,0.0000443817321694942
462,0.00822544097900391,0.0000604831800106952
463,0.00839948654174805,0.0000579057820235712
464,0.0080256462097168,0.0000638819436684196
465,0.00784873962402344,0.0000631390738888859
466,0.00744247436523438,0.0000666157040315987
467,0.00775241851806641,0.0000597027924228493
468,0.00743484497070313,0.0000479559281035262
469,0.00735187530517578,0.0000529858137385405
470,0.00740385055541992,0.0000601609023012901
471,0.00716066360473633,0.0000544649488815525
472,0.00721597671508789,0.0000424431948269433
473,0.00712156295776367,0.0000473535551698197
474,0.00687313079833984,0.0000431649578178824
475,0.00699472427368164,0.0000534217248628845
476,0.00667047500610352,0.0000671460543171663
477,0.00675725936889648,0.0000630597986820977
478,0.00671243667602539,0.0000549987789978927
479,0.00658988952636719,0.0000401358399326143
480,0.00645589828491211,0.0000431991833395069
481,0.00629806518554688,0.0000605930394040404
482,0.00613546371459961,0.0000652204471020552
483,0.00638532638549805,0.0000678584679688271
484,0.00578117370605469,0.0000653545292477967
485,0.0105776786804199,0.0000655490682225976
486,0.00315141677856445,0.0000351099185617894
487,0.00570440292358398,0.0000445772614292997
488,0.00529861450195313,0.000040045805434541
489,0.00562810897827148,0.0000542138895082887
490,0.00552082061767578,0.0000722278451109371
491,0.00543785095214844,0.0000688216610752601
492,0.0054779052734375,0.0000604361706457324
493,0.00534486770629883,0.0000928033408797267
494,0.00513029098510742,0.0000779362583512354
495,0.00538969039916992,0.0000844809582005768
496,0.00501203536987305,0.0000690459546462952
497,0.0049285888671875,0.0000860806639671157
498,0.00515842437744141,0.0000885711383586233
499,0.00484180450439453,0.00006445420408339
500,0.00467300415039063,0.0000531390033339872
501,0.00495624542236328,0.0000569406263135801
502,0.00475931167602539,0.0000546514464641358
503,0.00470352172851563,0.0000790097731884729
504,0.00467300415039063,0.0000645881167348683
505,0.00474262237548828,0.0000441943420819607
506,0.00441455841064453,0.0000613732214193828
507,0.00440692901611328,0.0000636180117803876
508,0.00447702407836914,0.0000629298602032038
509,0.00442171096801758,0.0000388907404024194
510,0.00434637069702148,0.00004839603527915
511,0.00408315658569336,0.0000725137477882655
512,0.00428676605224609,0.0000842140861777283
513,0.00408124923706055,0.0000512428033079394
514,0.00400018692016602,0.0000551257577934199
515,0.00404214859008789,0.0000580263997918284
516,0.00394392013549805,0.0000639086326875077
517,0.00382232666015625,0.0000608728904250353
518,0.0039525032043457,0.0000474147362741264
519,0.00373315811157227,0.0000580126835879276
520,0.00365781784057617,0.000058466536040829
521,0.00375461578369141,0.0000575898091406171
522,0.0036463737487793,0.0000492113504909778
523,0.00368499755859375,0.0000496529230038974
524,0.00359058380126953,0.0000582102757105029
525,0.003662109375,0.0000699473140884442
526,0.00351572036743164,0.0000592526532951812
527,0.00336074829101562,0.0000614713194277711
528,0.00353765487670898,0.0000525376315895865
529,0.00341987609863281,0.0000406683675007255
530,0.00333499908447266,0.000059946036178738
531,0.00320243835449219,0.0000523457750230751
532,0.00330924987792969,0.0000635697438539166
533,0.00326728820800781,0.0000664208658828311
534,0.00313663482666016,0.0000532725494982613
535,0.00296449661254883,0.0000421245890968427
536,0.00292205810546875,0.0000548735781947443
537,0.00305795669555664,0.000047552404800209
538,0.00310134887695312,0.0000532533394912067
539,0.0029296875,0.0000572055558824204
540,0.00292778015136719,0.000059267041642761
541,0.00290441513061523,0.000054829016495581
542,0.00279903411865234,0.0000541404445583561
543,0.00275421142578125,0.0000567726653966989
544,0.00282096862792969,0.0000499166747925446
545,0.00260400772094727,0.0000411512125129058
546,0.00262737274169922,0.0000480471115341509
547,0.00284433364868164,0.0000442996861473141
548,0.0025181770324707,0.0000563646935601584
549,0.00245094299316406,0.000059552169588738
550,0.00249910354614258,0.0000452982751772896
551,0.00252151489257812,0.0000502390434249857
552,0.00253915786743164,0.0000589149628063929
553,0.00244283676147461,0.000042670265402626
554,0.00241518020629883,0.000030964139676814
555,0.00255060195922852,0.0000281904135724102
556,0.00236415863037109,0.0000442470454652506
557,0.00230884552001953,0.0000498665439095683
558,0.00223541259765625,0.0000509401813011682
559,0.00233602523803711,0.0000610500555926484
560,0.00231027603149414,0.0000537600854589994
561,0.00214767456054687,0.0000422472071125478
562,0.00204372406005859,0.0000563142463169355
563,0.00221157073974609,0.0000478574449040029
564,0.00208473205566406,0.0000296910114580632
565,0.00210142135620117,0.0000390206076016969
566,0.00208711624145508,0.000039732297046639
567,0.00216341018676758,0.0000358825902160945
568,0.00211048126220703,0.0000339736018103572
569,0.00225925445556641,0.0000327406962796627
570,0.00219583511352539,0.0000382444507178159
571,0.00209665298461914,0.000045075616066347
572,0.00163078308105469,0.0000516835170930452
573,0.00233221054077148,0.0000394789779723905
574,0.00196313858032227,0.0000453359056286416
575,0.0016937255859375,0.000037676925288709
576,0.00224399566650391,0.000044977145200851
577,0.00213146209716797,0.0000427992893958479
578,0.00150489807128906,0.0000392124276242221
579,0.00176715850830078,0.0000426935717548985
580,0.00213861465454102,0.0000381864403163781
581,0.00225019454956055,0.000032256192255569
582,0.00124549865722656,0.0000489507658638606
583,0.00131797790527344,0.0000479879212395062
584,0.00214433670043945,0.0000460438068564351
585,0.00184822082519531,0.000046433510285035
586,0.00125455856323242,0.0000323687796563666
587,0.00200986862182617,0.0000321882741938108
588,0.00124788284301758,0.0000453622283707629
589,0.00146102905273437,0.0000510104336559919
590,0.00163459777832031,0.0000309760699632868
591,0.00136709213256836,0.0000232057348208986
592,0.00216293334960937,0.0000292152760709952
593,0.0014796257019043,0.0000317508745312067
594,0.00157976150512695,0.0000370846285665421
595,0.00143098831176758,0.0000266996875624677
596,0.00121593475341797,0.0000326685657645338
597,0.00162553787231445,0.0000372391198409451
598,0.00146150588989258,0.000030568757950771
599,0.00155448913574219,0.0000374453817317911
600,0.00136709213256836,0.0000406550868922416
601,0.00124359130859375,0.000034687240406621
602,0.00136232376098633,0.0000394940934006665
603,0.00129413604736328,0.0000359000116410998
604,0.00106048583984375,0.0000381305778558593
605,0.00146293640136719,0.0000323046177328501
606,0.000941753387451172,0.0000487925821076151
607,0.00117588043212891,0.0000439208180987147
608,0.000952720642089844,0.0000298671018376852
609,0.00102472305297852,0.0000309953322641735
610,0.00120449066162109,0.000040095455755252
611,0.000856399536132813,0.0000495646938488114
612,0.00101947784423828,0.0000320227306182495
613,0.000987052917480469,0.0000198339325456709
614,0.000803470611572266,0.0000240241472981501
615,0.000856876373291016,0.0000323318801316945
616,0.000563621520996094,0.0000426789235334694
617,0.000920772552490234,0.0000354298351492527
618,0.000885009765625,0.0000371581302560964
619,0.000844955444335938,0.0000360359251841154
620,0.000845909118652344,0.0000351907761111
621,0.0006103515625,0.000029866150216655
622,0.000889301300048828,0.0000380298186437372
623,0.000636100769042969,0.000036425022163756
624,0.000712394714355469,0.0000524943354995018
625,0.000471591949462891,0.000040750750159962
626,0.000524997711181641,0.0000334806245451774
627,0.000688076019287109,0.0000609158303171971
628,0.000508785247802734,0.000048578919063986
629,0.000664234161376953,0.0000315362086559037
630,0.000431537628173828,0.0000328697864654971
631,0.000555515289306641,0.0000372825981042542
632,0.000511646270751953,0.0000460598532208156
633,0.00054931640625,0.0000391493180367675
634,0.000449180603027344,0.0000407828203520458
635,0.000491619110107422,0.0000464910115910954
636,0.000494480133056641,0.0000469751159676756
637,0.000294685363769531,0.0000387875594358424
638,0.0003662109375,0.0000414656452223008
639,0.000260353088378906,0.0000376029260053337
640,0.000416278839111328,0.0000348221741299816
641,0.000446796417236328,0.0000419555735494421
642,0.000483512878417969,0.0000478503177806934
643,0.000426292419433594,0.0000466045816918409
644,0.000457763671875,0.000047280273794894
645,0.000316143035888672,0.0000358659527800404
646,0.000310420989990234,0.0000399157135380239
647,0.000283241271972656,0.0000513370068475218
648,0.000365257263183594,0.0000438456887945956
649,0.0002288818359375,0.0000544221415999365
650,0.000256538391113281,0.0000508474784376275
651,0.000274658203125,0.0000364881700905629
652,0.000207901000976562,0.0000302213770789161
653,0.000353336334228516,0.0000434340809175525
654,-0.0000438690185546875,0.00004967924677467
655,0.00344944000244141,0.0000424164007238171
656,0.00121545791625977,0.000031061283752036
657,-0.00467300415039063,0.0000337621249096644
658,0.000334262847900391,0.0000276925001372422
659,-0.0000958442687988281,0.0000388827006706184
660,0.000107765197753906,0.0000438962209369288
661,0.0000844001770019531,0.0000449430088645604
662,0.0000424385070800781,0.0000330706422508234
663,0.00000143051147460937,0.0000287158328401652
664,-0.0000262260437011719,0.0000450402923203715
665,0.0000457763671875,0.0000519019230839638
666,0.0000185966491699219,0.0000537917967137237
667,0.00000238418579101562,0.0000438301287223739
668,0.0000257492065429687,0.0000379115529343699
669,-0.0000271797180175781,0.0000360540608324355
670,-0.00008392333984375,0.0000373321167847376
671,-0.0000424385070800781,0.0000320138539082749
672,-0.0000300407409667969,0.00003341774688604
673,-0.000193119049072266,0.0000488798791074352
674,-0.0000767707824707031,0.0000479037453589051
675,-0.000109195709228516,0.0000364757050905952
676,-0.0000405311584472656,0.0000311097420356408
677,-0.0000600814819335938,0.0000390439087055734
678,-0.0000596046447753906,0.000038477833718241
679,-0.0000271797180175781,0.0000409212692400974
680,-0.0000791549682617188,0.0000299701732248757
681,-0.000183582305908203,0.0000391841496889914
682,-0.000177383422851562,0.0000423399445041358
683,-0.0000696182250976563,0.0000349736570442221
684,-0.000139713287353516,0.0000297460023866626
685,-0.0000872611999511719,0.000031815259855208
686,-0.000119209289550781,0.0000383439047155451
687,-0.000124454498291016,0.0000275236669642326
688,-0.000199317932128906,0.000017605480743032
689,-0.000197410583496094,0.0000231800003619885
690,-0.000181198120117187,0.0000328144005503725
691,-0.000123023986816406,0.0000236317195438252
692,-0.000169277191162109,0.0000342211647284304
693,-0.000199317932128906,0.0000524466685183578
694,-0.000227928161621094,0.0000473511543000349
695,-0.000173568725585937,0.0000455660259108678
696,-0.000192642211914062,0.0000479025587267851
697,-0.000107765197753906,0.00004213875553898
698,-0.000247001647949219,0.0000327467723113156
699,-0.000230789184570312,0.0000417879148487218
700,-0.00026702880859375,0.0000409073759589066
701,-0.000246047973632812,0.0000397330123703353
702,-0.000189304351806641,0.0000444955759477495
703,-0.000262737274169922,0.000039152947779679
704,-0.000247955322265625,0.0000357548386960363
705,-0.000330924987792969,0.0000407367987232972
706,-0.000204086303710937,0.0000432938205003472
707,-0.000213146209716797,0.0000383898335605166
708,-0.000406265258789063,0.000044280434620549
709,-0.000277996063232422,0.00004519777413789
710,-0.000242233276367187,0.000041499217597756
711,-0.000347614288330078,0.0000317786119816633
712,-0.000354766845703125,0.000047521314633564
713,-0.000298023223876953,0.0000469811659536582
714,-0.000306129455566406,0.0000374749717328129
715,-0.000387668609619141,0.0000408009358318853
716,-0.000426292419433594,0.0000407165606488989
717,-0.0003662109375,0.00004036532866491
718,-0.000355243682861328,0.0000499758555495169
719,-0.000370502471923828,0.000042876915150186
720,-0.000373363494873047,0.0000353872931644058
721,-0.000436305999755859,0.0000426362819106995
722,-0.000502586364746094,0.0000472068786621094
723,-0.000413417816162109,0.0000297970767172955
724,-0.000396251678466797,0.0000342377713022852
725,-0.00045013427734375,0.0000454473593042139
726,-0.000428199768066406,0.0000324170369478729
727,-0.000489711761474609,0.0000302002095294331
728,-0.000477790832519531,0.000037937033649678
729,-0.000505447387695313,0.0000324573424936077
730,-0.000527858734130859,0.0000402002288328409
731,-0.000574588775634766,0.0000394025925459893
732,-0.000631809234619141,0.0000355723396371457
733,-0.000537872314453125,0.0000546160713356404
734,-0.000584602355957031,0.0000647761824024032
735,-0.000675678253173828,0.000053094056429559
736,-0.000682353973388672,0.0000487960769861833
737,-0.000608444213867188,0.0000513159645933485
738,-0.000786781311035156,0.0000321493994523393
739,-0.000586986541748047,0.0000429318978914478
740,-0.000720977783203125,0.0000460030486401486
741,-0.000689029693603516,0.0000442431912489457
742,-0.000614643096923828,0.0000545160647123257
743,-0.000649929046630859,0.0000559903076449269
744,-0.000704765319824219,0.0000550772719996723
745,-0.000812530517578125,0.0000458867510447411
746,-0.000759124755859375,0.0000546909562949462
747,-0.000674724578857422,0.0000484136502786823
748,-0.000765800476074219,0.0000494176786291913
749,-0.000603199005126953,0.0000460512135655405
750,-0.000599384307861328,0.0000310969490731819
751,-0.000738143920898438,0.000032706823440095
752,-0.000767707824707031,0.0000358183746656438
753,-0.000647544860839844,0.0000558429042824953
754,-0.000675201416015625,0.0000552421558681533
755,-0.000663280487060547,0.0000438002897998663
756,-0.000612258911132813,0.0000423714826422177
757,-0.000619888305664063,0.0000460314596928609
758,-0.000687599182128906,0.0000337318056933926
759,-0.000672817230224609,0.0000318857552795039
760,-0.000597476959228516,0.0000424887060240766
761,-0.000722885131835938,0.0000430825736935709
762,-0.000758171081542969,0.0000420448984200494
763,-0.000609397888183594,0.0000317929186169324
764,-0.000645637512207031,0.0000400614164516939
765,-0.000601291656494141,0.0000451020907204187
766,-0.000750064849853516,0.000065298840231561
767,-0.00072479248046875,0.0000510950539821536
768,-0.000513076782226563,0.000044505794831951
769,-0.000669002532958984,0.0000402094188301443
770,-0.000650405883789063,0.0000401889151820623
771,-0.000634670257568359,0.0000421266131659599
772,-0.000683307647705078,0.000037241409436068
773,-0.0005950927734375,0.0000437236533597857
774,-0.000728130340576172,0.0000575147452153434
775,-0.000659465789794922,0.0000592133073064861
776,-0.000689983367919922,0.0000521390416444269
777,-0.000739574432373047,0.0000370002283755614
778,-0.000623703002929688,0.0000431227968087933
779,-0.000592708587646484,0.000039657116254488
780,-0.000689029693603516,0.0000387912230289702
781,-0.000708580017089844,0.000040743775038784
782,-0.000695705413818359,0.0000424291300325824
783,-0.000732898712158203,0.0000359925202762715
784,-0.000723361968994141,0.0000298356823176587
785,-0.000688076019287109,0.0000423895896843671
786,-0.000667572021484375,0.0000504084765680916
787,-0.000650882720947266,0.0000459102817608296
788,-0.000624656677246094,0.0000444572342121088
789,-0.000721454620361328,0.0000353020553948967
790,-0.000656604766845703,0.0000425254809218867
791,-0.000719070434570313,0.0000436247368296916
792,-0.000682830810546875,0.0000503802772816189
793,-0.000678062438964844,0.0000552565597978144
794,-0.000670433044433594,0.0000554578219990912
795,-0.000855922698974609,0.0000457018006496629
796,-0.000824928283691406,0.000057582899449304
797,-0.000751972198486328,0.0000487471258850942
798,-0.000706672668457031,0.0000627797363018752
799,-0.000780105590820313,0.0000553942364957234
800,-0.000801563262939453,0.0000443753277866892
801,-0.000792980194091797,0.0000377959251691365
802,-0.000798702239990234,0.0000383505752186919
803,-0.000759124755859375,0.0000555632951251832
804,-0.000880718231201172,0.0000454160797161455
805,-0.000841617584228516,0.0000421164918476304
806,-0.000787258148193359,0.0000575177101221791
807,-0.000777244567871094,0.0000558225422383243
808,-0.000813007354736328,0.0000437963962677194
809,-0.000874042510986328,0.0000435151464330667
810,-0.000791072845458984,0.0000388073387299135
811,-0.000848293304443359,0.0000373610357665041
812,-0.000949859619140625,0.0000262904460144364
813,-0.000847339630126953,0.0000250662867289501
814,-0.000916481018066406,0.0000382057869036444
815,-0.000974178314208984,0.00005975989151052
816,-0.000920295715332031,0.0000438456887945956
817,-0.000878810882568359,0.0000455385727365274
818,-0.000975608825683594,0.0000528622972561477
819,-0.000928878784179688,0.0000401266330839163
820,-0.000949382781982422,0.0000551236954369294
821,-0.000971317291259766,0.0000609008981364807
822,-0.000926494598388672,0.0000380163639047193
823,-0.000988960266113281,0.0000524954183369556
824,-0.000978946685791016,0.0000485906189073829
825,-0.000927925109863281,0.0000522120357937385
826,-0.0010066032409668,0.000055896827826838
827,-0.00104951858520508,0.0000393614560766009
828,-0.00107908248901367,0.0000444201390756081
829,-0.00106143951416016,0.0000506458530649361
830,-0.00106048583984375,0.0000507770006271396
831,-0.00103616714477539,0.0000458495726949598
832,-0.00105857849121094,0.0000489391521205802
833,-0.00111246109008789,0.0000471478391654459
834,-0.00107288360595703,0.0000495830401017318
835,-0.00114154815673828,0.0000532458670612252
836,-0.00103998184204102,0.0000561464364246093
837,-0.00109624862670898,0.0000336026438282926
838,-0.00114774703979492,0.0000332309659535939
839,-0.00107860565185547,0.00003323267646529
840,-0.00107574462890625,0.0000499883655776134
841,-0.00107860565185547,0.0000375446813931124
842,-0.00111150741577148,0.0000530158437544053
843,-0.00108098983764648,0.0000449430088645604
844,-0.00101995468139648,0.0000552267189175268
845,-0.00110960006713867,0.0000439660926371748
846,-0.00112104415893555,0.0000447668580018371
847,-0.000949859619140625,0.0000555285009043615
848,-0.00105857849121094,0.0000385538397541836
849,-0.000940799713134766,0.0000570822078754776
850,-0.000949382781982422,0.0000469545401844731
851,-0.000986099243164063,0.0000515579832771495
852,-0.000911235809326172,0.00005091227651611
853,-0.000882148742675781,0.0000465459994678473
854,-0.00100374221801758,0.0000601675159331796
855,-0.00106382369995117,0.000065543864883179
856,-0.000994682312011719,0.0000387421020986166
857,-0.000958919525146484,0.0000497249940533674
858,-0.000905513763427734,0.0000425535421701872
859,-0.000889301300048828,0.0000752678051848436
860,-0.000836849212646484,0.0000699944325269898
861,-0.000901699066162109,0.0000575147452153434
862,-0.000851154327392578,0.0000518241049545041
863,-0.000916004180908203,0.0000562708255157364
864,-0.0008087158203125,0.0000476037785927228
865,-0.000845432281494141,0.0000614361702286011
866,-0.000785350799560547,0.0000519949324551925
867,-0.000889778137207031,0.0000508139297666825
868,-0.000864028930664063,0.0000473235355428788
869,-0.000740528106689453,0.0000488042307295749
870,-0.000802040100097656,0.0000543113127398432
871,-0.000752925872802734,0.0000537325872332439
872,-0.000885963439941406,0.000050552610468147
873,-0.000863075256347656,0.000063363746424723
874,-0.000805377960205078,0.0000486724390640436
875,-0.000803470611572266,0.0000498266310537312
876,-0.000799655914306641,0.0000537600854589994
877,-0.000713348388671875,0.0000458607293645652
878,-0.000830650329589844,0.0000434824769090745
879,-0.000805377960205078,0.0000427315006062944
880,-0.000780582427978516,0.0000457900245479271
881,-0.000789165496826172,0.0000531261652415911
882,-0.000725746154785156,0.0000591479928417465
883,-0.000810146331787109,0.0000730853089444959
884,-0.000837326049804688,0.0000421097429505679
885,-0.000735759735107422,0.0000428828805418433
886,-0.000738143920898438,0.0000515315161381994
887,-0.000744342803955078,0.0000572442958773
888,-0.000763893127441406,0.0000445517508048976
889,-0.000798225402832031,0.0000541887195965325
890,-0.000792503356933594,0.000045492364127228
891,-0.0007781982421875,0.0000522653550334731
892,-0.000828742980957031,0.0000638961791992188
893,-0.000798225402832031,0.000046745852306351
894,-0.000730037689208984,0.0000532351903417696
895,-0.000753402709960938,0.0000614861130792525
896,-0.000791549682617188,0.0000663369438135969
897,-0.000782012939453125,0.0000503102748455428
898,-0.000806808471679688,0.0000543740738016598
899,-0.000795364379882813,0.0000632883454247935
900,-0.000867843627929688,0.0000519522782402166
901,-0.000812053680419922,0.0000483008032737063
902,-0.0008392333984375,0.000052638157347605
903,-0.000804901123046875,0.0000777990182476542
904,-0.000749588012695313,0.0000739128358262253
905,-0.000816822052001953,0.0000528224957589247
906,-0.000860691070556641,0.0000656028118969721
907,-0.000881671905517578,0.0000478883168478538
908,-0.000885963439941406,0.0000687985305199302
909,-0.000910758972167969,0.000109444256232794
910,-0.000990390777587891,0.0000506110476151772
911,-0.000940322875976563,0.0000621536704127802
912,-0.000889301300048828,0.0000619741569171141
913,-0.000914096832275391,0.0000825272747291862
914,-0.0010066032409668,0.0000957695114325488
915,-0.000911235809326172,0.0000437769234126073
916,-0.00101041793823242,0.0000564402798802387
917,-0.000951290130615234,0.0000560613291745217
918,-0.00106191635131836,0.0000616172510953798
919,-0.00107622146606445,0.0000363922356559468
920,-0.00111103057861328,0.0000404701053573679
921,-0.00104951858520508,0.0000611691196854575
922,-0.00112009048461914,0.0000882161630072407
923,-0.00113010406494141,0.0000652047571662758
924,-0.0012660026550293,0.0000650651247833856
925,-0.00122880935668945,0.0000694956418783919
926,-0.0013127326965332,0.000053336532886081
927,-0.00142192840576172,0.0000852898938823078
928,-0.00148963928222656,0.0000862587743664627
929,-0.0015406608581543,0.0000789665945133171
930,-0.0015110969543457,0.0000645652303145913
931,-0.00160455703735352,0.0000669255857841844
932,-0.00169515609741211,0.0000623818920457765
933,-0.00171661376953125,0.0000634032064002787
934,-0.00182294845581055,0.0000647041844546103
935,-0.00188684463500977,0.0000597798633064787
936,-0.0019841194152832,0.0000626673609006754
937,-0.00201654434204102,0.0000688645972087218
938,-0.00213527679443359,0.0000593034764994279
939,-0.00218009948730469,0.0000651245051270458
940,-0.00226497650146484,0.0000628448943228401
941,-0.00224828720092773,0.000107904361228344
942,-0.00232362747192383,0.0000911120897051121
943,-0.00245857238769531,0.0000720844685414562
944,-0.00249052047729492,0.0000678048355020654
945,-0.00256729125976562,0.000116656629569983
946,-0.00275802612304687,0.0000681910480671
947,-0.00306129455566406,0.0000819161272868821
948,-0.0029149055480957,0.0000738343500169598
949,-0.00317621231079102,0.0000765260503666293
950,-0.00333404541015625,0.0000758890494426016
951,-0.00332069396972656,0.0000951836722957831
952,-0.00339508056640625,0.000106248050515789
953,-0.0037841796875,0.0000781620322502185
954,-0.00377607345581055,0.0000609074314159943
955,-0.00390529632568359,0.0000929893589455596
956,-0.00396251678466797,0.000115163824565719
957,-0.00427770614624023,0.000136328735895004
958,-0.0045619010925293,0.000132752698037569
959,-0.00471591949462891,0.0000941001616176148
960,-0.00466203689575195,0.0000820783444625165
961,-0.00470209121704102,0.000115017629886197
962,-0.00481605529785156,0.000101701664174745
963,-0.00463342666625977,0.000121013341994165
964,-0.00468015670776367,0.0000922775386827642
965,-0.00460004806518555,0.000126917534892151
966,-0.00446701049804688,0.000120164856063235
967,-0.0044560432434082,0.000128293123814118
968,-0.00461006164550781,0.000114452838276888
969,-0.00445222854614258,0.000160197415709264
970,-0.00463438034057617,0.000134278562930381
971,-0.00433206558227539,0.000144039554070554
972,-0.00416660308837891,0.000134390274156305
973,-0.00382566452026367,0.000136671877813296
974,-0.00402212142944336,0.00016226201687895
975,-0.00397920608520508,0.000125841653466848
976,-0.00380039215087891,0.000113557345112888
977,-0.00356531143188477,0.000110274198750455
978,-0.00359106063842773,0.000120420029584233
979,-0.00367307662963867,0.000105185564822687
980,-0.00342512130737305,0.000116732619131556
981,-0.00334501266479492,0.00014275520229619
982,-0.00327205657958984,0.00015483630174715
983,-0.00289678573608398,0.000211440586360212
984,-0.00304126739501953,0.000157049631700874
985,-0.0027613639831543,0.000148977848042468
986,-0.00276565551757812,0.000139082863114075
987,-0.00285434722900391,0.000170032401559108
988,-0.00270795822143555,0.00021926629682904
989,-0.00240421295166016,0.000214659357053504
990,-0.00248479843139648,0.00019734837754418
991,-0.00222921371459961,0.000214511013566902
992,-0.00238609313964844,0.000125476144276078
993,-0.00185585021972656,0.000123540400640647
994,-0.00209426879882812,0.000195351984086141
995,-0.00184249877929687,0.000175828165840019
996,-0.00201082229614258,0.000199247192533266
997,-0.00179147720336914,0.000179245111048615
998,-0.00185155868530273,0.000157598828709851
999,-0.00117397308349609,0.00023181152896168
1000,-0.00159215927124023,0.000226830188177628
1001,-0.00116586685180664,0.000159864946501162
1002,-0.000966072082519531,0.000133193857413857
1003,-0.00168085098266602,0.000201204940708017
1004,-0.00155830383300781,0.000257216411968152
1005,-0.00119590759277344,0.000223184241887056
1006,-0.00120162963867187,0.000199274578581438
1007,-0.00131511688232422,0.000203085611838945
1008,-0.00118684768676758,0.000214447406373792
1009,-0.00134754180908203,0.000279021050230556
1010,-0.00107669830322266,0.000305086361182275
1011,-0.000993251800537109,0.000209552435421306
1012,-0.00107812881469727,0.000272650800373137
1013,-0.000979900360107422,0.000199794200268211
1014,-0.000691890716552734,0.000194058077960207
1015,-0.000973224639892578,0.000227862312668885
1016,-0.000748634338378906,0.00022931852009053
1017,-0.000692367553710938,0.000230106415703292
1018,-0.00118350982666016,0.000281403419833458
1019,-0.00113868713378906,0.000267872159790966
1020,-0.000552654266357422,0.000323496674426184
1021,-0.00146293640136719,0.000300581442664251
1022,-0.00117969512939453,0.000245077600169996
1023,-0.00107622146606445,0.000300726645253614
1024,-0.0007476806640625,0.000437810264141955
1025,-0.00101041793823242,0.000306478343150541
1026,-0.000995159149169922,0.000322804316841532
1027,-0.000754833221435547,0.000249615029653785
1028,-0.000950813293457031,0.000256543708944687
1029,-0.00110435485839844,0.000395046851482986
1030,-0.00112247467041016,0.00022831289787792
1031,-0.000920772552490234,0.000223794669814166
1032,-0.00191640853881836,0.000230394767245863
1033,-0.0014643669128418,0.000311832544059715
1034,-0.00136041641235352,0.000412666679003725
1035,-0.00143098831176758,0.000458176744373195
1036,-0.00170564651489258,0.000400052451163068
1037,-0.00150394439697266,0.000462971311590934
1038,-0.00223779678344727,0.000374277987525146
1039,-0.00129365921020508,0.000412657863129189
1040,-0.00112199783325195,0.000389108470729619
1041,-0.00208377838134766,0.000304358102183885
1042,-0.00157356262207031,0.000276736502594232
1043,-0.00222969055175781,0.000499929139025923
1044,-0.0023045539855957,0.000413353737921734
1045,-0.00181388854980469,0.000424341135215302
1046,-0.00256919860839844,0.00056515483484389
1047,-0.00245332717895508,0.000599575277843887
1048,-0.00306892395019531,0.000479143288172056
1049,-0.00205898284912109,0.000447288504789919
1050,-0.00210332870483398,0.000465385249338006
1051,-0.00147676467895508,0.000424957960254932
1052,-0.00321531295776367,0.000295983390840729
1053,-0.00243711471557617,0.000470578123150315
1054,-0.0030360221862793,0.000406985472820451
1055,-0.00286197662353516,0.000488653637029616
1056,-0.00365924835205078,0.000640062551180908
1057,-0.00280666351318359,0.000511582051466016
1058,-0.00215625762939453,0.000493572297478383
1059,-0.0042576789855957,0.000510072242302961
1060,-0.00237560272216797,0.000449729996507983
1061,-0.00293540954589844,0.000468431777026862
1062,-0.00346088409423828,0.000542237445395605
1063,-0.00439357757568359,0.000971198250241567
1064,-0.00247716903686523,0.000962332523160922
1065,-0.00402545928955078,0.000866767719409372
1066,-0.00400304794311523,0.00104294130203476
1067,-0.0031580924987793,0.000661066234369208
1068,-0.00277328491210937,0.000521889066113999
1069,-0.00282382965087891,0.00074156380472619
1070,-0.00556468963623047,0.000979330193995469
1071,-0.000796794891357422,0.00100970648254796
1072,-0.00287294387817383,0.00094084696063789
1073,-0.00444459915161133,0.00124178796616797
1074,-0.00499534606933594,0.0012870180288615
1075,-0.00311708450317383,0.00096201491916377
1076,-0.000529289245605469,0.001490370537973
1077,-0.00377750396728516,0.00148147833679848
1078,-0.00249004364013672,0.00131429469498589
1079,-0.00378561019897461,0.000880311134526565
1080,-0.00190305709838867,0.000998372668637426
1081,-0.00379800796508789,0.00119028335560647
1082,-0.00334692001342773,0.00135586597959756
1083,-0.0048222541809082,0.00176382625575849
1084,-0.00319528579711914,0.00133523123320217
1085,-0.00215244293212891,0.00114204161836952
1086,-0.00380563735961914,0.000998081113373598
1087,-0.00427579879760742,0.00150988782607744
1088,-0.00478553771972656,0.00136538454793385
1089,-0.00471830368041992,0.00203600510304211
1090,-0.00414705276489258,0.00186060270481572
1091,-0.003387451171875,0.00215694736178045
1092,-0.00176382064819336,0.00178452826499773
1093,-0.00237178802490234,0.00210211626365118
1094,-0.00728607177734375,0.00145567568087602
1095,-0.00545883178710938,0.00131553417830143
1096,-0.00844526290893555,0.00178074056258734
1097,-0.00476551055908203,0.00181172017676859
1098,-0.00338029861450195,0.00201011019348922
1099,-0.00796413421630859,0.00188521705913523
1100,-0.00652217864990234,0.00184413687033535
