Wavelength (nm),Absorbance (AU),Std.Dev.
190,0.18084192276001,0.0000735520350488062
191,0.178400993347168,0.0000557828148741022
192,0.176661014556885,0.0000458272512074575
193,0.175230026245117,0.0000379707318336839
194,0.174164295196533,0.0000387325639555974
195,0.173351287841797,0.000042683584876481
196,0.172656536102295,0.0000326023785831379
197,0.17210054397583,0.0000421252637973545
198,0.171302318572998,0.0000411560468851706
199,0.17033052444458,0.000037695779401446
200,0.169278144836426,0.0000303639890695026
201,0.168219089508057,0.0000338730631875154
202,0.16718578338623,0.0000313808124232729
203,0.166325092315674,0.0000365931744742658
204,0.165412902832031,0.0000269027662266399
205,0.164389610290527,0.0000322350383399116
206,0.163160800933838,0.0000519052086049835
207,0.161736488342285,0.0000568597070967422
208,0.160197257995605,0.0000486969583037297
209,0.158638954162598,0.0000423828842744379
210,0.156927108764648,0.0000357572233323024
211,0.155014991760254,0.0000332625961810976
212,0.153191566467285,0.0000380193542582128
213,0.151323318481445,0.0000271326209140644
214,0.14949369430542,0.0000248664977503441
215,0.147593975067139,0.0000291344186854486
216,0.145771026611328,0.0000250487057028023
217,0.143966674804687,0.0000283397365034391
218,0.142242431640625,0.0000300449981397746
219,0.140405178070068,0.0000316226093894754
220,0.138731956481934,0.000029283780782784
221,0.137094497680664,0.0000276724794187903
222,0.135403156280518,0.0000312664855327262
223,0.133748531341553,0.0000298161474586105
224,0.132119655609131,0.0000469484867673783
225,0.130481719970703,0.0000402299120283021
226,0.128782749176025,0.0000362905658758039
227,0.127111434936523,0.0000294430052701275
228,0.125365734100342,0.000024089716958694
229,0.123729705810547,0.0000231947092632807
230,0.122037887573242,0.0000286861247494061
231,0.12034273147583,0.0000336330794803283
232,0.118706226348877,0.0000261190790698674
233,0.116910457611084,0.0000275200525288738
234,0.115280628204346,0.0000365200922333329
235,0.113574981689453,0.0000442020586973468
236,0.111939907073975,0.000038851256664745
237,0.110446929931641,0.0000331427552576163
238,0.108941555023193,0.0000327693305653247
239,0.107487201690674,0.0000319809886583032
240,0.106122016906738,0.0000371772474720836
241,0.104724407196045,0.000033667708794977
242,0.103430271148682,0.0000307384337321268
243,0.102232933044434,0.0000302707104646757
244,0.101032733917236,0.0000393152164646602
245,0.0999646186828613,0.0000326755250372899
246,0.0989151000976563,0.0000243980384930916
247,0.0979251861572266,0.00002737041134449
248,0.0970611572265625,0.0000397351582641595
249,0.0962333679199219,0.0000391594804690769
250,0.0954413414001465,0.0000300028728804386
251,0.0947279930114746,0.0000296052136525781
252,0.0940279960632324,0.000037027871433863
253,0.0933752059936523,0.000043571280714632
254,0.0927205085754395,0.0000396463645034329
255,0.0920624732971191,0.0000321025105551957
256,0.0915079116821289,0.0000256324922101353
257,0.0910205841064453,0.0000290445305970646
258,0.0903534889221191,0.000036217657760159
259,0.0897026062011719,0.0000396183962951997
260,0.0890278816223145,0.0000355483620536112
261,0.0884246826171875,0.0000338226818063524
262,0.0877914428710938,0.000032351213703124
263,0.0870676040649414,0.0000439208180987147
264,0.0863509178161621,0.0000424974011446064
265,0.0856118202209473,0.0000316693113657385
266,0.0848989486694336,0.0000252200205262211
267,0.0841741561889648,0.0000370439870251403
268,0.0832729339599609,0.0000468248262388563
269,0.0825004577636719,0.0000354675183708937
270,0.0816454887390137,0.0000454085694088346
271,0.080754280090332,0.0000539700886534896
272,0.079988956451416,0.0000483854632012678
273,0.0791611671447754,0.0000508184042024563
274,0.0782394409179688,0.0000453359056286416
275,0.0773391723632813,0.0000444329340002839
276,0.0764756202697754,0.0000438573552259142
277,0.0756354331970215,0.0000419934921543666
278,0.0747032165527344,0.0000444559555847422
279,0.073850154876709,0.0000490458948266995
280,0.0730376243591309,0.0000562768862433662
281,0.0722036361694336,0.0000431280691889094
282,0.0713391304016113,0.0000360390798654822
283,0.070465087890625,0.0000259827031715406
284,0.0696539878845215,0.0000338629929078792
285,0.0688605308532715,0.0000316468670946837
286,0.0679531097412109,0.0000353487203926575
287,0.0671567916870117,0.0000360532725156829
288,0.0663571357727051,0.0000370301740905882
289,0.0655393600463867,0.0000357842381039114
290,0.0646243095397949,0.0000349102119783843
291,0.0638217926025391,0.0000396291556342853
292,0.0630264282226563,0.0000387156830230418
293,0.0622806549072266,0.0000469968922723147
294,0.0614213943481445,0.0000399769023471256
295,0.060673713684082,0.000031524490351844
296,0.0600342750549316,0.000038705404068122
297,0.059201717376709,0.0000438806787833895
298,0.058469295501709,0.0000410544055205019
299,0.0577359199523926,0.0000430640980438911
300,0.0570249557495117,0.0000346995287908876
301,0.0562734603881836,0.0000344075265692559
302,0.0555801391601563,0.0000464530931886564
303,0.0547728538513184,0.0000537495108831858
304,0.0541200637817383,0.0000378890557196891
305,0.0534491539001465,0.0000447198519939517
306,0.052760124206543,0.0000443253418430695
307,0.052086353302002,0.0000362921321834882
308,0.0514845848083496,0.0000424070187881603
309,0.0508327484130859,0.0000398173303405288
310,0.0501794815063477,0.0000530083378453566
311,0.0495157241821289,0.0000381029888738915
312,0.0488386154174805,0.0000331530443110823
313,0.0482354164123535,0.0000496769583048632
314,0.0476717948913574,0.0000397201345728048
315,0.0470776557922363,0.0000338428433590681
316,0.0465264320373535,0.0000413242058534268
317,0.0459041595458984,0.0000418001556090826
318,0.0453100204467773,0.0000393802254102305
319,0.0447587966918945,0.0000417967557574653
320,0.0442943572998047,0.0000423030083159101
321,0.0436363220214844,0.0000432412698704307
322,0.0430951118469238,0.0000464518694990446
323,0.0425796508789063,0.0000369002338121562
324,0.0421004295349121,0.0000473007078843584
325,0.0415434837341309,0.0000597684516688246
326,0.0410065650939941,0.000076829994066001
327,0.0404849052429199,0.000057034388641666
328,0.0399856567382812,0.0000663043740238522
329,0.0394744873046875,0.0000497661306489203
330,0.0390210151672363,0.0000469303218312092
331,0.0385007858276367,0.0000524412490744251
332,0.0379815101623535,0.0000498175036253612
333,0.0374913215637207,0.0000426289485861565
334,0.0369992256164551,0.0000426356152969531
335,0.036494255065918,0.0000403955941315042
336,0.0360426902770996,0.0000473907530979465
337,0.0355486869812012,0.0000702942722754302
338,0.0351057052612305,0.0000494073251609368
339,0.0346298217773437,0.0000537812283730425
340,0.0342392921447754,0.0000512294900306797
341,0.0337681770324707,0.0000393137706004572
342,0.0333142280578613,0.0000456545121843187
343,0.0328888893127441,0.0000658777757911192
344,0.0323996543884277,0.0000535588115009269
345,0.0319643020629883,0.000047124926398394
346,0.0314812660217285,0.000052502997573815
347,0.0310912132263184,0.0000416605341789691
348,0.0305919647216797,0.0000519030182807456
349,0.030238151550293,0.0000529439578315049
350,0.029789924621582,0.0000513115335455383
351,0.0293726921081543,0.0000380970210616658
352,0.0289978981018066,0.0000502480942818668
353,0.0286035537719727,0.0000615840312613027
354,0.0282354354858398,0.0000819411046779249
355,0.0278306007385254,0.000072695384754822
356,0.0275459289550781,0.0000709190080359581
357,0.0270733833312988,0.0000574702532575626
358,0.0266003608703613,0.0000573682862320556
359,0.026240348815918,0.000065141959632767
360,0.0258913040161133,0.0000556440565141347
361,0.025505542755127,0.0000350345535644659
362,0.0251584053039551,0.0000503509332703182
363,0.0246658325195312,0.0000673083983111053
364,0.0244359970092773,0.0000676571270009535
365,0.0240602493286133,0.0000714905971202715
366,0.023658275604248,0.0000648936656607107
367,0.0232610702514648,0.0000601609023012901
368,0.0231022834777832,0.0000688926563662777
369,0.0225515365600586,0.0000808207334050686
370,0.0222635269165039,0.0000761313493951305
371,0.0219454765319824,0.0000718047732699626
372,0.0214753150939941,0.0000569945086321457
373,0.0211892127990723,0.0000674973061303638
374,0.02105712890625,0.0000592814264981081
375,0.0205917358398437,0.0000648095201838652
376,0.0202794075012207,0.0000687555531294763
377,0.0200681686401367,0.0000807320655413959
378,0.0197086334228516,0.0000686231461833745
379,0.019406795501709,0.0000660776565076001
380,0.0191974639892578,0.0000841978849297566
381,0.0188837051391602,0.000069864373544317
382,0.0186038017272949,0.0000838542241815041
383,0.0182681083679199,0.0000824432003261915
384,0.0180411338806152,0.0000808966570793077
385,0.0176692008972168,0.0000679639332045259
386,0.0173168182373047,0.0000574959639215585
387,0.0173163414001465,0.0000709318312903864
388,0.016963005065918,0.0000804428667012457
389,0.0165910720825195,0.0000823659417125775
390,0.0164713859558105,0.0000789982611827019
391,0.0161809921264648,0.0000653319113100203
392,0.0159225463867187,0.0000514343534399141
393,0.0155611038208008,0.0000643853776154261
394,0.0154919624328613,0.0000683675408807902
395,0.0152096748352051,0.0000873484461978179
396,0.014984130859375,0.0000775985634323414
397,0.0147366523742676,0.0000859127711823929
398,0.014549732208252,0.0000816715014114633
399,0.0144014358520508,0.0000856689412561906
400,0.0140924453735352,0.0000612768216887065
401,0.0138678550720215,0.0000651855754495051
402,0.0137419700622559,0.0000768344330961586
403,0.0136680603027344,0.000105211501345045
404,0.0134792327880859,0.000102383500552012
405,0.0132021903991699,0.0000738605212201313
406,0.0129919052124023,0.0000679522229283278
407,0.012843132019043,0.0000624146872247943
408,0.0125999450683594,0.0000745880626557963
409,0.0124540328979492,0.0000829189518248265
410,0.0122537612915039,0.0000639281975533227
411,0.0120477676391602,0.0000601259324477356
412,0.0119266510009766,0.0000747388057478435
413,0.0117049217224121,0.0000905136910835623
414,0.011650562286377,0.0000766907742997167
415,0.0113434791564941,0.0000847671097263379
416,0.0112290382385254,0.0000642227255147291
417,0.0111579895019531,0.0000747281571356191
418,0.0109891891479492,0.0000717841877196501
419,0.0107526779174805,0.0000792095272058895
420,0.0107741355895996,0.0000766715006042618
421,0.0106201171875,0.0000893023196367033
422,0.0104990005493164,0.0000676940843418603
423,0.0103821754455566,0.000062296178795052
424,0.0102062225341797,0.0000904005787745889
425,0.0101842880249023,0.0000688480864800545
426,0.00998401641845703,0.0000669680399477415
427,0.00984382629394531,0.000079636088273236
428,0.00958442687988281,0.0000833674465080542
429,0.00969791412353516,0.0000583253910843632
430,0.00947427749633789,0.0000594805379086024
431,0.00934648513793945,0.0000424820162587864
432,0.00930261611938477,0.0000400890755873919
433,0.00920581817626953,0.0000457589791970573
434,0.00907039642333984,0.0000737187779115246
435,0.00901031494140625,0.000063194867160909
436,0.00885105133056641,0.0000667435768391521
437,0.00888395309448242,0.0000480281785764523
438,0.00876712799072266,0.0000660139671853236
439,0.0086212158203125,0.0000646690344170018
440,0.00851106643676758,0.0000575671027548296
441,0.00839424133300781,0.0000509981743453372
442,0.00831985473632813,0.0000448252291671983
443,0.00823211669921875,0.0000712995135716912
444,0.00811910629272461,0.0000619851624797397
445,0.00812673568725586,0.0000582346835591626
446,0.00802183151245117,0.0000621609864825381
447,0.00793981552124023,0.0000639299758805844
448,0.00800514221191406,0.0000653232100179036
449,0.00791549682617188,0.0000646918841139144
450,0.00772714614868164,0.0000812052420426453
451,0.00767421722412109,0.0000704138506738207
452,0.00773382186889648,0.0000666856382163261
453,0.00762701034545898,0.0000689784135242691
454,0.00758886337280273,0.0000685319680146091
455,0.00738000869750977,0.0000498129392840052
456,0.00748109817504883,0.0000913588139052284
457,0.00712966918945313,0.0000634551843305509
458,0.0072941780090332,0.0000669816195970645
459,0.00722217559814453,0.000057009466904941
460,0.00708675384521484,0.0000539953604800528
461,0.00710153579711914,0.000062567504106414
462,0.00699234008789063,0.0000580851468369014
463,0.00700521469116211,0.0000682177177520373
464,0.00689697265625,0.0000707263802251402
465,0.00678014755249023,0.000086611271207754
466,0.00682163238525391,0.0000735860318313236
467,0.00677299499511719,0.000065628801100745
468,0.00669622421264648,0.0000582473715984351
469,0.00666475296020508,0.0000630922414880361
470,0.00668239593505859,0.0000733430733855351
471,0.00652885437011719,0.0000841911334896218
472,0.00658702850341797,0.0000737588634153904
473,0.0064091682434082,0.0000781794843267051
474,0.00649499893188477,0.0000586577543351662
475,0.00634622573852539,0.000052712617092628
476,0.00621366500854492,0.0000813660820482379
477,0.00628137588500977,0.0000659484925064868
478,0.00617456436157227,0.000071869658306158
479,0.00620841979980469,0.0000760895255459713
480,0.00602388381958008,0.0000792568768717906
481,0.00603532791137695,0.0000622468858918108
482,0.00605344772338867,0.0000478289300385693
483,0.00597620010375977,0.0000519106840112463
484,0.00596761703491211,0.0000533226763339727
485,0.00591182708740234,0.0000624638477089417
486,0.00540351867675781,0.0000728531653799021
487,0.00584983825683594,0.0000820908094294758
488,0.00579357147216797,0.0000915055351980003
489,0.00569915771484375,0.0000904433267175955
490,0.00567340850830078,0.0000989755900856176
491,0.00561046600341797,0.0000767189348369977
492,0.00572872161865234,0.0000751135832086871
493,0.00554656982421875,0.00008495332737594
494,0.00549173355102539,0.0000581731561672508
495,0.00552463531494141,0.00007031367718188
496,0.00545024871826172,0.0000792597456393916
497,0.00539922714233398,0.0000577839287681606
498,0.00543069839477539,0.0000697275505234669
499,0.0052800178527832,0.0000604493369529243
500,0.005279541015625,0.000075639961628613
501,0.00535488128662109,0.0000849078154664137
502,0.00521659851074219,0.0000741861160467606
503,0.00519371032714844,0.0000817619314333172
504,0.00522327423095703,0.000077679100142268
505,0.00518894195556641,0.0000916644249549911
506,0.00510168075561523,0.0000797060089677017
507,0.00498390197753906,0.000086464133885522
508,0.00508546829223633,0.0000596866044171099
509,0.00494527816772461,0.0000504490558491814
510,0.0048832893371582,0.0000524141434494818
511,0.00491142272949219,0.0000833769917483317
512,0.00489473342895508,0.000083970739243918
513,0.00484943389892578,0.0000869884815291701
514,0.00489091873168945,0.000084299091645775
515,0.00476646423339844,0.00007807908161591
516,0.00463247299194336,0.0000572065495433385
517,0.00480222702026367,0.0000547491293389048
518,0.00465154647827148,0.0000581281902687857
519,0.00470352172851563,0.0000740680230672745
520,0.00455331802368164,0.0000777873270584309
521,0.00474357604980469,0.0000720907767998511
522,0.00459671020507813,0.0000846530337846456
523,0.00452136993408203,0.0000645757942856987
524,0.00450468063354492,0.000046331791135888
525,0.00452709197998047,0.0000510583281727318
526,0.00455045700073242,0.0000644312700964565
527,0.00445985794067383,0.0000815600652817738
528,0.00451755523681641,0.0000603194293278923
529,0.00439596176147461,0.0000474914010486018
530,0.00431013107299805,0.0000778428445687986
531,0.00431346893310547,0.0000748649524121646
532,0.00439357757568359,0.0000828572311650163
533,0.00432968139648438,0.0000805290295316939
534,0.00426578521728516,0.0000735922113771719
535,0.00421762466430664,0.0000736462602853862
536,0.00423145294189453,0.0000646655183623891
537,0.00407600402832031,0.0000725294240639936
538,0.00413942337036133,0.0000749757252581329
539,0.00414896011352539,0.0000471502503879481
540,0.00417852401733398,0.0000513248255413262
541,0.00406694412231445,0.0000841519644552607
542,0.00411319732666016,0.0000808432367421064
543,0.00403499603271484,0.000062890103230437
544,0.00404214859008789,0.0000694841897438661
545,0.00394630432128906,0.0000570702568233802
546,0.00393867492675781,0.0000552071592502169
547,0.00394773483276367,0.0000454636161849968
548,0.00390052795410156,0.0000582405399207643
549,0.00385427474975586,0.0000498870580868816
550,0.00385379791259766,0.0000607251699737295
551,0.00380325317382812,0.0000867240822165979
552,0.0038914680480957,0.0000736709551507916
553,0.00381612777709961,0.0000766492557026986
554,0.00372219085693359,0.0000773314621472557
555,0.00382566452026367,0.0000606661684760285
556,0.00375843048095703,0.0000753749695077885
557,0.00371837615966797,0.0000629966676196938
558,0.00375747680664062,0.0000599773200400566
559,0.00373363494873047,0.0000661120576222314
560,0.00363302230834961,0.0000637144379349254
561,0.00362825393676758,0.0000633242618600236
562,0.00365543365478516,0.0000562364690546972
563,0.00365304946899414,0.0000547512058044713
564,0.00359106063842773,0.0000624001137175675
565,0.00356006622314453,0.0000502401748712653
566,0.003570556640625,0.0000469400106719485
567,0.00357484817504883,0.0000588280632613697
568,0.00354433059692383,0.0000645722731540248
569,0.00345468521118164,0.0000720118838514435
570,0.0034480094909668,0.0000682626992180473
571,0.00340366363525391,0.0000562980936519251
572,0.00341320037841797,0.0000640259322038034
573,0.00343751907348633,0.0000586403084965088
574,0.00340986251831055,0.000053160393264948
575,0.0033416748046875,0.0000488170410033271
576,0.00335025787353516,0.0000430178742037959
577,0.00323772430419922,0.0000503034952464312
578,0.00328588485717773,0.0000560988328025617
579,0.00338029861450195,0.0000503227017383705
580,0.00335073471069336,0.0000572740780425098
581,0.00329256057739258,0.0000555735245737161
582,0.00324487686157227,0.0000569386296929187
583,0.0033111572265625,0.000054709661519102
584,0.00330257415771484,0.0000513513992112472
585,0.00319385528564453,0.0000503723786524793
586,0.00320529937744141,0.0000458247703710119
587,0.00328683853149414,0.0000564150956927013
588,0.00316715240478516,0.0000683143080801697
589,0.00319719314575195,0.0000673387942375298
590,0.00320100784301758,0.0000558734334351808
591,0.003143310546875,0.0000593255183052436
592,0.00315237045288086,0.0000652657523955214
593,0.00302791595458984,0.0000595760276761455
594,0.00319290161132812,0.0000519883725461155
595,0.00309467315673828,0.0000554034711772072
596,0.00309896469116211,0.0000546608066365819
597,0.00310611724853516,0.0000579656319629344
598,0.0030522346496582,0.0000695643150937196
599,0.00301170349121094,0.0000631390738888859
600,0.00302743911743164,0.0000459139960346726
601,0.00300788879394531,0.000041499217597756
602,0.00303936004638672,0.0000443637975677986
603,0.00297689437866211,0.0000430706974000012
604,0.00296926498413086,0.0000455947092827388
605,0.00298309326171875,0.0000575048610885084
606,0.00292587280273437,0.0000542264700830655
607,0.00295782089233398,0.0000582493233591741
608,0.00291204452514648,0.0000585801775059361
609,0.00298166275024414,0.0000571140651218798
610,0.00290536880493164,0.0000617628379603067
611,0.00289392471313477,0.0000716192903087141
612,0.00287485122680664,0.0000562536499080831
613,0.00290298461914062,0.000068182711651212
614,0.00280284881591797,0.0000691035594716999
615,0.00282573699951172,0.0000625747717918963
616,0.00276851654052734,0.0000541068365196981
617,0.00281238555908203,0.0000526737816621898
618,0.00281524658203125,0.0000504129869901271
619,0.00278759002685547,0.0000563778024493767
620,0.00276279449462891,0.0000537230653373266
621,0.00275945663452148,0.000054368846480312
622,0.00275135040283203,0.0000658397989237909
623,0.00273323059082031,0.0000608271167625919
624,0.00277042388916016,0.0000661034590219607
625,0.00271081924438477,0.0000519238226305433
626,0.0027618408203125,0.0000558724160655135
627,0.00272226333618164,0.0000549491466999116
628,0.00276041030883789,0.0000724714049060953
629,0.00268697738647461,0.0000737496148483336
630,0.00270843505859375,0.000062248712250966
631,0.00276613235473633,0.0000473259378137777
632,0.00271987915039062,0.0000468915464489472
633,0.00269556045532227,0.0000576164530448655
634,0.0026702880859375,0.0000613917424752468
635,0.00266265869140625,0.0000699781883733845
636,0.00261640548706055,0.0000643429862725563
637,0.00260400772094727,0.0000510382847744258
638,0.0026402473449707,0.000073110193286022
639,0.00264501571655273,0.0000615397102542941
640,0.00268220901489258,0.0000723143634523522
641,0.0027003288269043,0.0000660122449994661
642,0.00260734558105469,0.0000555980675711912
643,0.00254726409912109,0.0000582053929125486
644,0.0025782585144043,0.0000618750187645478
645,0.00255632400512695,0.0000615046001397379
646,0.00255393981933594,0.0000546524865624613
647,0.0025944709777832,0.0000581154762093005
648,0.00254344940185547,0.000067450128776331
649,0.00253582000732422,0.0000644065628238794
650,0.00258874893188477,0.0000753236704053578
651,0.00256729125976562,0.0000747175070057726
652,0.00258302688598633,0.0000595368953953955
653,0.00258016586303711,0.0000677159132897405
654,0.00248384475708008,0.0000695806558693775
655,0.00270414352416992,0.0000572909477305165
656,0.00238847732543945,0.0000457887831380355
657,0.00244617462158203,0.000048347854868589
658,0.002655029296875,0.0000497969607946498
659,0.0025029182434082,0.0000508060985558751
660,0.00253582000732422,0.0000514111397480143
661,0.00250482559204102,0.0000747448899879828
662,0.00249052047729492,0.0000711973926512159
663,0.0024418830871582,0.0000613417227905285
664,0.00249099731445312,0.0000747403268543116
665,0.00244712829589844,0.0000651454499727182
666,0.00243711471557617,0.0000660742154110475
667,0.0024418830871582,0.0000753176329197433
668,0.00243902206420898,0.00006445420408339
669,0.00244569778442383,0.0000699960567350102
670,0.0024261474609375,0.0000678467394894422
671,0.00240612030029297,0.0000571508779262579
672,0.00238037109375,0.0000465386715048303
673,0.00240087509155273,0.000056625290914047
674,0.00239372253417969,0.000050787074873712
675,0.00234746932983398,0.0000492436823217158
676,0.00235939025878906,0.000045160028585997
677,0.00239896774291992,0.0000411007630306968
678,0.00234842300415039,0.0000518186203998799
679,0.00235605239868164,0.0000457937485756837
680,0.00236034393310547,0.0000423265168923228
681,0.00230836868286133,0.0000489670204769149
682,0.00236749649047852,0.0000593954228989025
683,0.00233697891235352,0.0000498380379884869
684,0.00230789184570312,0.0000584694526836597
685,0.0023350715637207,0.0000686612393322461
686,0.00234270095825195,0.0000671562123143981
687,0.00223159790039062,0.0000539563948052049
688,0.0022578239440918,0.0000446753413309925
689,0.00230169296264648,0.0000540753100133294
690,0.00229787826538086,0.0000487855915993855
691,0.00231122970581055,0.0000451260305950965
692,0.0023040771484375,0.0000469605928212571
693,0.00228977203369141,0.0000497969607946498
694,0.00220203399658203,0.0000479891057608576
695,0.00224733352661133,0.0000545150220111921
696,0.0022730827331543,0.0000637804235432383
697,0.00229215621948242,0.0000630814290733177
698,0.00224447250366211,0.0000487704420608595
699,0.00226831436157227,0.0000704574300975567
700,0.00223636627197266,0.0000537611428021824
701,0.00225925445556641,0.0000526619095683123
702,0.00222492218017578,0.0000679689512767086
703,0.00223588943481445,0.0000722325669652951
704,0.00223779678344727,0.0000620071677449072
705,0.00221443176269531,0.0000613083536620587
706,0.00220298767089844,0.0000540700538084537
707,0.00226116180419922,0.0000682926704024054
708,0.00210332870483398,0.0000654240738583195
709,0.00217103958129883,0.0000650406582963405
710,0.00222253799438477,0.0000548673624559117
711,0.00217390060424805,0.0000578242473727972
712,0.00218486785888672,0.0000466216543078383
713,0.00211906433105469,0.0000642864209989651
714,0.00212478637695312,0.0000759369724371193
715,0.00214147567749023,0.0000630652069754236
716,0.00217485427856445,0.0000520331821085381
717,0.00215005874633789,0.0000488787161729905
718,0.00214290618896484,0.0000537727722050071
719,0.00211381912231445,0.0000569406263135801
720,0.00218677520751953,0.0000561909649680662
721,0.00215816497802734,0.0000474925979537534
722,0.00210285186767578,0.0000585714436828006
723,0.00213193893432617,0.0000534483195083697
724,0.00215005874633789,0.0000615489464293231
725,0.00215482711791992,0.0000652553001196137
726,0.00206375122070312,0.0000648323203675728
727,0.00207614898681641,0.000054637923384147
728,0.00211858749389648,0.0000629027559019724
729,0.00206947326660156,0.0000688167051821841
730,0.00214004516601562,0.0000632020627051578
731,0.00208711624145508,0.0000385014633105308
732,0.00209283828735352,0.0000578094999257443
733,0.00206184387207031,0.0000635429124963667
734,0.00206136703491211,0.0000631822729866284
735,0.00201034545898437,0.0000535110304675059
736,0.00203704833984375,0.0000568367090343883
737,0.00202035903930664,0.0000524119743939055
738,0.00205898284912109,0.0000463342448253449
739,0.00206136703491211,0.0000544033375193522
740,0.00209665298461914,0.000054897398673911
741,0.00198650360107422,0.0000422445160362273
742,0.00205421447753906,0.0000404349756608486
743,0.0020442008972168,0.0000444111804350247
744,0.00202417373657227,0.000062396469808912
745,0.00201749801635742,0.0000637518976074263
746,0.0019984245300293,0.0000637518976074263
747,0.00206947326660156,0.0000640010684528768
748,0.00200510025024414,0.000055491636185354
749,0.00191164016723633,0.0000503893027702763
750,0.00200843811035156,0.0000735041038029992
751,0.00202322006225586,0.0000783624964679876
752,0.00200271606445312,0.0000669799222914629
753,0.0020751953125,0.0000638552434943559
754,0.00198078155517578,0.000038226610739834
755,0.00198793411254883,0.0000463403784805822
756,0.00202417373657227,0.0000518460373711424
757,0.00202608108520508,0.0000524737573422901
758,0.00202131271362305,0.0000524585893242416
759,0.00197029113769531,0.0000679538959484782
760,0.00204277038574219,0.0000628376578792301
761,0.00199270248413086,0.0000668678048659529
762,0.0020146369934082,0.0000665644861270803
763,0.00196743011474609,0.0000606746007741408
764,0.00200510025024414,0.0000786521175034977
765,0.00203323364257812,0.0000617536337759479
766,0.00194883346557617,0.0000555551102101907
767,0.00193881988525391,0.0000558897088312251
768,0.00199365615844727,0.0000749954347661495
769,0.0019831657409668,0.0000527708166507871
770,0.00197410583496094,0.0000414889432251894
771,0.00197601318359375,0.0000537558558782951
772,0.0019841194152832,0.000049835756810411
773,0.00195503234863281,0.0000581878114472883
774,0.00202226638793945,0.0000542379997131581
775,0.00192499160766602,0.0000612081371247168
776,0.00199127197265625,0.000061102174681249
777,0.00191783905029297,0.0000574791544042524
778,0.00194644927978516,0.0000510627811928146
779,0.00199365615844727,0.0000483290397275862
780,0.00198459625244141,0.0000502062203911395
781,0.00188255310058594,0.0000642687341411184
782,0.0019536018371582,0.0000427162000350211
783,0.00190162658691406,0.0000461978679653931
784,0.00196743011474609,0.000058064592132144
785,0.00191164016723633,0.0000525343856205624
786,0.00194597244262695,0.0000613935942735271
787,0.00193357467651367,0.000057660832192821
788,0.00198888778686523,0.0000577514567629168
789,0.00195503234863281,0.0000546504063460152
790,0.00192499160766602,0.0000547999800950373
791,0.00196409225463867,0.0000528590712241916
792,0.00198125839233398,0.0000622267924032586
793,0.00197124481201172,0.0000682260498905942
794,0.00202655792236328,0.0000661326897014674
795,0.00200510025024414,0.0000625420605564761
796,0.00192356109619141,0.0000679856755089631
797,0.0019989013671875,0.0000506649297731317
798,0.0019230842590332,0.0000505694742676848
799,0.00187253952026367,0.0000646039564302061
800,0.00192451477050781,0.0000681143145558931
801,0.00195550918579102,0.0000668048688465127
802,0.00189447402954102,0.0000682710258668406
803,0.00197982788085937,0.0000539363744652756
804,0.00188684463500977,0.0000664875852920477
805,0.00191879272460937,0.0000660415160512846
806,0.0019679069519043,0.0000530512144501549
807,0.00190973281860352,0.0000643818460696035
808,0.00190401077270508,0.0000593389310479544
809,0.00188589096069336,0.0000570971431728862
810,0.00189685821533203,0.0000792339229917532
811,0.0019078254699707,0.000089457497622614
812,0.00187110900878906,0.0000641270636632171
813,0.00193548202514648,0.0000440332717083589
814,0.00194025039672852,0.0000566564017836452
815,0.00187540054321289,0.0000605339091207823
816,0.00194835662841797,0.000062113416625724
817,0.00182247161865234,0.0000509847971899933
818,0.00194931030273437,0.0000480873193186902
819,0.00192594528198242,0.0000547979054776827
820,0.0018925666809082,0.0000568547083093275
821,0.00185918807983398,0.0000573554037237354
822,0.00193643569946289,0.0000731257416993081
823,0.00186681747436523,0.0000670681252257245
824,0.00191354751586914,0.0000574405728066559
825,0.00187444686889648,0.0000505379906234293
826,0.00183391571044922,0.0000404258369393663
827,0.00179386138916016,0.0000610723977912345
828,0.00190210342407227,0.0000672644688349271
829,0.00181102752685547,0.0000862376842012657
830,0.00180435180664062,0.0000654796563661801
831,0.00180816650390625,0.0000602185109647058
832,0.00186967849731445,0.0000470138224247259
833,0.00187015533447266,0.0000384467978387856
834,0.00187778472900391,0.0000454886154259627
835,0.00179576873779297,0.0000602166230299487
836,0.00180673599243164,0.0000708500432798755
837,0.0018010139465332,0.0000582629838536419
838,0.00191497802734375,0.0000755828260619514
839,0.001800537109375,0.0000780412152033937
840,0.00185251235961914,0.0000785204723834407
841,0.00184249877929687,0.000071951867357053
842,0.00185251235961914,0.0000531368638673196
843,0.00185251235961914,0.000049515354611518
844,0.00186920166015625,0.0000395947154577613
845,0.00182580947875977,0.0000557889286176449
846,0.00182819366455078,0.0000841681745423101
847,0.00178670883178711,0.0000651279964024189
848,0.00182485580444336,0.000055544877370368
849,0.00177621841430664,0.0000516868164972486
850,0.00185346603393555,0.0000706008903135544
851,0.00186681747436523,0.000053297085542385
852,0.0018467903137207,0.0000403427907912015
853,0.00187969207763672,0.0000694890980326261
854,0.00182247161865234,0.0000616781076545051
855,0.00183629989624023,0.0000714874165798575
856,0.00182342529296875,0.0000638000277255797
857,0.0018315315246582,0.0000504321517834406
858,0.00188541412353516,0.0000589159276368995
859,0.00185012817382812,0.0000914607977198784
860,0.00185632705688477,0.0000701469436986886
861,0.00181245803833008,0.000076102971432724
862,0.00179958343505859,0.0000844419236037394
863,0.00182151794433594,0.0000762879846151736
864,0.00179624557495117,0.0000893786703471388
865,0.0018925666809082,0.0000876291262484617
866,0.0018916130065918,0.0000867214603714695
867,0.00180530548095703,0.0000730573039288641
868,0.0018305778503418,0.0000748452085433323
869,0.00183582305908203,0.000069864373544317
870,0.00181007385253906,0.0000644630226750228
871,0.00179338455200195,0.0000493497663385802
872,0.00189685821533203,0.0000685186956279223
873,0.0018458366394043,0.0000709590730117747
874,0.00190114974975586,0.0000681693712653181
875,0.00184345245361328,0.000068743977702866
876,0.00174188613891602,0.0000573841376567306
877,0.00190305709838867,0.0000729217947364906
878,0.00181722640991211,0.000080782744809125
879,0.00180530548095703,0.0000824831808104682
880,0.00189733505249023,0.0000810300538428441
881,0.00186777114868164,0.0000825947479221487
882,0.00184106826782227,0.0000571439151605661
883,0.00181198120117187,0.0000594040355773828
884,0.00185203552246094,0.0000615711075965425
885,0.00178289413452148,0.0000711031199982129
886,0.00187492370605469,0.0000497832608647849
887,0.00188350677490234,0.0000617554747225647
888,0.00185966491699219,0.0000627290110492791
889,0.0018162727355957,0.0000729217947364906
890,0.00185585021972656,0.0000719913575233377
891,0.00184059143066406,0.000069590458492996
892,0.00187349319458008,0.0000705590107463605
893,0.00186443328857422,0.0000536923721858584
894,0.00180673599243164,0.0000631570771038418
895,0.00184345245361328,0.0000775091430255882
896,0.00185060501098633,0.0000794860511004358
897,0.00178289413452148,0.0000632092574302884
898,0.00188493728637695,0.0000688266166114847
899,0.00188636779785156,0.0000667827421106606
900,0.00178050994873047,0.0000753734612089998
901,0.00184869766235352,0.0000759160098494356
902,0.00182390213012695,0.0000633458019463181
903,0.00192117691040039,0.000075353850577418
904,0.00175666809082031,0.0000735288464120659
905,0.00182819366455078,0.0000776922709282686
906,0.00189876556396484,0.0000734344705195533
907,0.00180530548095703,0.0000616873231078958
908,0.00169134140014648,0.0000445479229512278
909,0.00185203552246094,0.0000619869965502054
910,0.00192070007324219,0.0000757661084121079
911,0.00187397003173828,0.0000736956417411304
912,0.0018310546875,0.0000735071970845914
913,0.00176095962524414,0.0000790126509278408
914,0.00180196762084961,0.0000581731561672508
915,0.00179481506347656,0.0000763937178542937
916,0.00186872482299805,0.0000919937400043998
917,0.0017242431640625,0.0000746596655061542
918,0.00183391571044922,0.000072190059157469
919,0.00175237655639648,0.0000696133259133738
920,0.00177621841430664,0.0000791319848209724
921,0.00186777114868164,0.000074709898840652
922,0.00180387496948242,0.00007532819820201
923,0.00171232223510742,0.0000615434048906409
924,0.00167131423950195,0.0000587478086361766
925,0.00177717208862305,0.0000618382605965294
926,0.00171852111816406,0.0000915676343237316
927,0.00168418884277344,0.0000834042578440108
928,0.00162267684936523,0.0000622596692808131
929,0.00170660018920898,0.0000767781864173753
930,0.00174045562744141,0.0000866532645538372
931,0.00167322158813477,0.0000930797858242536
932,0.00172185897827148,0.0000744980808067822
933,0.00167083740234375,0.0000719028694297259
934,0.00158071517944336,0.0000762566833101248
935,0.00157451629638672,0.0000671274273299221
936,0.00169086456298828,0.000104821779664909
937,0.00151920318603516,0.0000846664624612295
938,0.00163412094116211,0.0000918873988309005
939,0.00167512893676758,0.0000943511215670138
940,0.00170707702636719,0.0000925580106924846
941,0.00158548355102539,0.0000990215248307859
942,0.00168418884277344,0.0000893990195238718
943,0.0015873908996582,0.000090947235061182
944,0.00162458419799805,0.000116824130618655
945,0.00161409378051758,0.0000915701174128084
946,0.00152492523193359,0.00010585140517958
947,0.0014805793762207,0.000123757386760775
948,0.00148820877075195,0.000099294397196264
949,0.00137710571289062,0.000130133744075132
950,0.00157451629638672,0.000126396930070881
951,0.00150871276855469,0.00011086848467649
952,0.00151634216308594,0.000109794797347822
953,0.00148487091064453,0.000112908756235959
954,0.00168848037719727,0.00010522662803081
955,0.00146818161010742,0.000155466464871417
956,0.00140953063964844,0.000121654233525184
957,0.00133037567138672,0.000122531377764504
958,0.001373291015625,0.000140216072431891
959,0.0014190673828125,0.000137418479444765
960,0.00129985809326172,0.000152549142686099
961,0.00121307373046875,0.000141410961413468
962,0.00115776062011719,0.000156898990095181
963,0.00109338760375977,0.000120335031866359
964,0.00126743316650391,0.0000805558483112793
965,0.00130558013916016,0.000123772083915006
966,0.00138473510742187,0.000140604716608079
967,0.00139570236206055,0.000180640114343988
968,0.0012660026550293,0.000163979300089727
969,0.00142335891723633,0.000174493735205463
970,0.00139284133911133,0.000161421879575832
971,0.00144529342651367,0.000156152338933915
972,0.0014348030090332,0.000164701514792911
973,0.00125789642333984,0.000133687996411569
974,0.00140762329101562,0.000125823583933066
975,0.00160121917724609,0.00018257322043492
976,0.00152111053466797,0.000198675791320798
977,0.00143766403198242,0.000130820341702891
978,0.00161170959472656,0.000128558693679648
979,0.00160932540893555,0.0001656925075787
980,0.00174236297607422,0.000146602419139645
981,0.00173759460449219,0.000165478296102478
982,0.00130987167358398,0.000185552772629018
983,0.00150108337402344,0.000241601676235465
984,0.00160598754882812,0.000155079877479258
985,0.00195932388305664,0.000202102466725724
986,0.00169944763183594,0.000204099672539188
987,0.00181245803833008,0.000214133334361056
988,0.00160598754882812,0.000169209345801328
989,0.00176239013671875,0.000255933210861127
990,0.00157260894775391,0.000219220665179361
991,0.00186538696289062,0.000207471842054552
992,0.00141716003417969,0.00018590534867876
993,0.00160026550292969,0.000127721168844476
994,0.00170803070068359,0.000182792276515541
995,0.00230741500854492,0.000166587550060613
996,0.00187587738037109,0.000237788321010984
997,0.00154495239257812,0.000219461161545926
998,0.00165081024169922,0.000204500330994653
999,0.0018000602722168,0.000265190060748682
1000,0.0017848014831543,0.000228396537002836
1001,0.00159931182861328,0.000228786448629362
1002,0.00201177597045898,0.000222146758963977
1003,0.00157833099365234,0.000237990949507772
1004,0.00178337097167969,0.000251328919998343
1005,0.00194263458251953,0.000199128476135123
1006,0.00188398361206055,0.00015662340532698
1007,0.00201654434204102,0.000220684440526596
1008,0.00140810012817383,0.000162757312228478
1009,0.0018153190612793,0.000191667185490924
1010,0.00175952911376953,0.000214494053493064
1011,0.00196456909179687,0.000301119550657133
1012,0.00186443328857422,0.000258127065322265
1013,0.00198221206665039,0.000287573528411098
1014,0.00197744369506836,0.000364578103697826
1015,0.00155162811279297,0.000293849327013559
1016,0.0015721321105957,0.000294121570194765
1017,0.00239706039428711,0.000228340780990252
1018,0.002044677734375,0.000251972232877682
1019,0.00225400924682617,0.000229441435508107
1020,0.00226545333862305,0.000259132809233603
1021,0.00176286697387695,0.000312036640145036
1022,0.00207233428955078,0.000255982956997797
1023,0.00191068649291992,0.000262001950586276
1024,0.00184392929077148,0.000340690055387974
1025,0.00175189971923828,0.000435109661029324
1026,0.00148344039916992,0.000390088935427592
1027,0.00213241577148437,0.000230185452050922
1028,0.00213766098022461,0.00032505608204304
1029,0.00223255157470703,0.000364518227185168
1030,0.00219917297363281,0.000297845787633351
1031,0.00232267379760742,0.000329910669652513
1032,0.00127315521240234,0.000323237917546308
1033,0.00204277038574219,0.000293316485743492
1034,0.00200462341308594,0.000301668758507405
1035,0.00178241729736328,0.0003204345703125
1036,0.00134563446044922,0.000347367933283454
1037,0.00219392776489258,0.000355483940344902
1038,0.00136661529541016,0.000399615712549066
1039,0.00183773040771484,0.000330004387228852
1040,0.00194835662841797,0.000396737685464376
1041,0.00229740142822266,0.000410598604330609
1042,0.00255250930786133,0.000414715668963771
1043,0.00111770629882812,0.000488802512406141
1044,0.0016632080078125,0.000385633631412374
1045,0.00204992294311523,0.000516507755877537
1046,0.00192880630493164,0.000577696826932056
1047,0.00255870819091797,0.000472191110811117
1048,0.00205659866333008,0.000535418275742271
1049,0.00215053558349609,0.000617686542975117
1050,0.00200080871582031,0.000605011467374247
1051,0.00182580947875977,0.000467389935073749
1052,0.00236225128173828,0.000441146277675063
1053,0.00112771987915039,0.000599854322191503
1054,0.00161027908325195,0.000672469566327524
1055,0.00251960754394531,0.000733136781831984
1056,0.00208854675292969,0.000773753769829569
1057,0.002197265625,0.000825280461630155
1058,0.00139999389648437,0.000575400013274072
1059,0.00158119201660156,0.000668813368739568
1060,0.000499725341796875,0.000553683301279716
1061,0.00142049789428711,0.000554549929691707
1062,0.00178384780883789,0.000619227717618863
1063,0.00169897079467773,0.000857840517286583
1064,0.00264930725097656,0.000740680230672745
1065,0.00232887268066406,0.000857229616381789
1066,0.00256872177124023,0.00112675076755405
1067,0.00162172317504883,0.000786179398998507
1068,0.00202703475952148,0.000817663251743703
1069,0.00116395950317383,0.000988382098740524
1070,0.00145483016967773,0.00123098336160985
1071,0.00234365463256836,0.00110149011982873
1072,0.000234603881835937,0.00086291453935806
1073,0.00179481506347656,0.000764958570880207
1074,0.00304412841796875,0.00105586520421673
1075,0.00373029708862305,0.000948840287587221
1076,0.0023646354675293,0.00112775768273121
1077,0.0013737678527832,0.00104653492428481
1078,0.00199794769287109,0.000787769621671801
1079,0.001007080078125,0.000986023610385495
1080,0.00157499313354492,0.00115743220791693
1081,0.00157737731933594,0.00118641377950927
1082,0.00155544281005859,0.00146436683520631
1083,0.00299739837646484,0.00164932617305674
1084,0.00412416458129883,0.0015196865316251
1085,0.00222539901733398,0.00129020257587843
1086,0.00276994705200195,0.00130912495976328
1087,0.00456428527832031,0.0015535515608167
1088,0.00431966781616211,0.001616603711394
1089,0.00346899032592773,0.00118812970355657
1090,0.000934123992919922,0.00117991984207755
1091,0.000384807586669922,0.00117539730805424
1092,0.00380277633666992,0.00140326945691218
1093,0.00130414962768555,0.0015199163287279
1094,0.00534820556640625,0.0013597456163766
1095,0.0000157356262207031,0.00150366830801302
1096,0.00265121459960937,0.00197593953941707
1097,-0.000302791595458984,0.00233294859052934
1098,-0.000118732452392578,0.00203113913233508
1099,0.00341892242431641,0.0024548162291808
1100,0.000326633453369141,0.00274975910811464
