Wavelength (nm),Absorbance (AU),Std.Dev.
190,0.0620989799499512,0.0000796931709902446
191,0.0527324676513672,0.0000663694976202302
192,0.0447087287902832,0.0000438793833554357
193,0.0382165908813477,0.0000336592659057616
194,0.0329804420471191,0.0000275871004895028
195,0.0286355018615723,0.0000292366706572312
196,0.025273323059082,0.0000277453059078917
197,0.022425651550293,0.0000335654072196542
198,0.0200252532958984,0.0000283186679292703
199,0.0179872512817383,0.0000244143418951737
200,0.0162043571472168,0.0000286672937017105
201,0.0146880149841309,0.0000378162231284433
202,0.0135583877563477,0.0000374408273483157
203,0.0126314163208008,0.000053623513373266
204,0.0118913650512695,0.000055639970147344
205,0.0113277435302734,0.0000492148156316676
206,0.0107622146606445,0.0000367242012287746
207,0.0103864669799805,0.0000374704209458869
208,0.0100383758544922,0.0000330035390861466
209,0.00970172882080078,0.0000375416532299108
210,0.0094141960144043,0.0000456557572451255
211,0.00910568237304688,0.0000569865292812079
212,0.00892210006713867,0.0000434484745459197
213,0.0086665153503418,0.0000392833951591918
214,0.00852823257446289,0.0000344653002878882
215,0.00830364227294922,0.0000496391833210248
216,0.00807666778564453,0.0000426049397896791
217,0.00794267654418945,0.0000413572058234319
218,0.00774812698364258,0.0000460376336885823
219,0.00755786895751953,0.000046822398257924
220,0.00736713409423828,0.0000385818430055898
221,0.00715875625610352,0.0000443766087371921
222,0.00693273544311523,0.000036675411660993
223,0.00675106048583984,0.0000465508841356609
224,0.00655555725097656,0.000037333639394881
225,0.00640726089477539,0.0000384933422742775
226,0.00629615783691406,0.000044505794831951
227,0.00614404678344727,0.0000451323284515456
228,0.00607585906982422,0.0000409407119130658
229,0.0060272216796875,0.0000433594192235362
230,0.00590658187866211,0.0000470537051105274
231,0.00590658187866211,0.0000350605038877791
232,0.00576257705688477,0.0000395789203613002
233,0.00568723678588867,0.000044359953495506
234,0.00559377670288086,0.000035241621113249
235,0.00549411773681641,0.0000303476040632998
236,0.00540876388549805,0.0000257227019486641
237,0.0052638053894043,0.000030804935228991
238,0.00524234771728516,0.0000344504534425138
239,0.00515222549438477,0.0000320085267006653
240,0.00503873825073242,0.0000373785284913652
241,0.00495576858520508,0.0000422418247884679
242,0.00490236282348633,0.0000419813077664257
243,0.00479507446289063,0.0000338999026415852
244,0.00474357604980469,0.0000421380810544934
245,0.00469827651977539,0.0000395163960847299
246,0.00464153289794922,0.0000371022516102755
247,0.00452995300292969,0.000036169756497404
248,0.00442314147949219,0.0000490041536320514
249,0.00433731079101563,0.0000422653673960106
250,0.00421667098999023,0.0000346339403591444
251,0.00411796569824219,0.0000358286886186702
252,0.00399255752563477,0.0000294304535284722
253,0.00393342971801758,0.0000301319018277017
254,0.00376987457275391,0.0000445453708660405
255,0.00373268127441406,0.0000535099681821679
256,0.00365161895751953,0.0000474973852727468
257,0.00356531143188477,0.0000459523592848212
258,0.00345897674560547,0.0000386951223827053
259,0.00345039367675781,0.0000484969411281247
260,0.00345087051391602,0.000060321314045021
261,0.00338315963745117,0.0000596294351522909
262,0.00334930419921875,0.0000386355817774861
263,0.00326681137084961,0.0000366032701073175
264,0.00324058532714844,0.0000547158951728018
265,0.00321531295776367,0.0000628593647108566
266,0.00327491760253906,0.0000533130812266382
267,0.00308990478515625,0.0000415628620186334
268,0.00311422348022461,0.0000484852186795891
269,0.00315570831298828,0.0000542180833575646
270,0.00313425064086914,0.0000526219565047272
271,0.00319480895996094,0.0000546639263378963
272,0.00318431854248047,0.0000579195235433567
273,0.00319910049438477,0.0000593906375378381
274,0.00318193435668945,0.000054230662959441
275,0.00321054458618164,0.0000510160050960574
276,0.00325107574462891,0.0000417817931237313
277,0.00326681137084961,0.0000500247405983101
278,0.00326251983642578,0.0000510026326174277
279,0.00326919555664062,0.0000526694648467701
280,0.00318622589111328,0.0000476825237125155
281,0.00313806533813477,0.0000458334527110933
282,0.00317001342773437,0.0000423359166677673
283,0.00315761566162109,0.0000369079353199336
284,0.0030369758605957,0.0000479156100638199
285,0.00303792953491211,0.0000380910523144495
286,0.0029754638671875,0.0000315407145366588
287,0.0029754638671875,0.0000370240333544089
288,0.0028538703918457,0.0000410640964895841
289,0.00279092788696289,0.0000431583728751555
290,0.0027470588684082,0.0000290572490447567
291,0.00268411636352539,0.0000332309659535939
292,0.00263023376464844,0.0000368979230463615
293,0.00260829925537109,0.000035521167892587
294,0.00252914428710937,0.0000372902206428434
295,0.00254249572753906,0.0000346010995207716
296,0.00244903564453125,0.0000332608872080864
297,0.00242090225219727,0.0000414964780138081
298,0.0023798942565918,0.0000407200506896758
299,0.00233888626098633,0.0000456570022719796
300,0.00232362747192383,0.0000522664426148625
301,0.00229883193969727,0.0000468114707853123
302,0.00222873687744141,0.0000393715637527167
303,0.00217199325561523,0.0000416093361117729
304,0.00217294692993164,0.0000459882185144763
305,0.00215578079223633,0.0000652448461692431
306,0.00214910507202148,0.0000432478421912126
307,0.00212526321411133,0.0000521739172614667
308,0.00211763381958008,0.0000477635192648078
309,0.00210189819335937,0.0000424666257993026
310,0.0020599365234375,0.00004839603527915
311,0.00201272964477539,0.0000411056033362547
312,0.0020146369934082,0.0000367389028258859
313,0.00202655792236328,0.0000406648730242671
314,0.00192642211914062,0.0000610761206964037
315,0.00192022323608398,0.0000655490682225976
316,0.00186872482299805,0.0000638819436684196
317,0.0018610954284668,0.0000602779506418628
318,0.00186824798583984,0.0000619484696673846
319,0.00179958343505859,0.0000581897652057526
320,0.00186395645141602,0.0000589853539586933
321,0.00181674957275391,0.0000505064873535828
322,0.00177431106567383,0.0000603279100912844
323,0.00172042846679687,0.0000478194213048693
324,0.00172805786132812,0.0000446995097619359
325,0.00166130065917969,0.0000429451362198202
326,0.00163412094116211,0.000040773759593911
327,0.001556396484375,0.0000458421334067697
328,0.00151729583740234,0.0000385177002463424
329,0.00151252746582031,0.0000489646987197017
330,0.00153064727783203,0.0000653562687649514
331,0.00159502029418945,0.0000579940635509902
332,0.00148534774780273,0.0000483113938778915
333,0.00148439407348633,0.0000529568400956555
334,0.00146150588989258,0.0000458656870132868
335,0.00141763687133789,0.0000469073028137854
336,0.00133848190307617,0.0000457800923262283
337,0.00137662887573242,0.0000453258738963445
338,0.00133419036865234,0.000049836897412501
339,0.00135993957519531,0.0000386547035711723
340,0.00130796432495117,0.0000349093978314846
341,0.00137472152709961,0.0000305771246755245
342,0.00123262405395508,0.0000409920517288943
343,0.00113773345947266,0.0000370922917882813
344,0.001220703125,0.0000332762648055418
345,0.00122308731079102,0.0000467628733460133
346,0.00126266479492187,0.0000480778616886806
347,0.00119686126708984,0.0000518219112023091
348,0.00115871429443359,0.000052318619934239
349,0.00119447708129883,0.0000400848215779796
350,0.00112056732177734,0.0000486712711730988
351,0.00112199783325195,0.000046513014542624
352,0.00108432769775391,0.0000437249534015122
353,0.000998020172119141,0.0000575157335346041
354,0.00107336044311523,0.0000500826586819431
355,0.00107812881469727,0.0000549925774103443
356,0.00106573104858398,0.0000507344428653268
357,0.00115442276000977,0.0000501439107957186
358,0.0011444091796875,0.0000590970359223544
359,0.00108432769775391,0.0000532501371496126
360,0.00105047225952148,0.0000430066409161768
361,0.000966548919677734,0.0000429007717398562
362,0.00100851058959961,0.0000502322542121222
363,0.000999927520751953,0.0000546899169282419
364,0.00107908248901367,0.0000322614785671921
365,0.000970840454101563,0.0000416857687295664
366,0.00122928619384766,0.0000688266166114847
367,0.000996589660644531,0.0000446295126220611
368,0.00103187561035156,0.0000388914712047158
369,0.00109672546386719,0.0000369671831876962
370,0.00101470947265625,0.0000354651142551818
371,0.00117206573486328,0.0000331092937516143
372,0.00104045867919922,0.0000366257811069772
373,0.00111055374145508,0.0000505031108376945
374,0.00120067596435547,0.0000592075471637361
375,0.00111246109008789,0.0000630796268240116
376,0.00114917755126953,0.0000881336456779798
377,0.00122165679931641,0.0000476204929839358
378,0.00136947631835937,0.0000309989999168031
379,0.00126552581787109,0.0000397444557985513
380,0.00119161605834961,0.0000527955858690723
381,0.00115108489990234,0.0000690459546462952
382,0.00124549865722656,0.0000690640641972953
383,0.00120210647583008,0.0000746383441806866
384,0.00126218795776367,0.0000486911215094352
385,0.00116252899169922,0.000058321492588865
386,0.00127887725830078,0.0000906015696930884
387,0.00138521194458008,0.000079551816501017
388,0.00127649307250977,0.0000820894245266165
389,0.000983238220214844,0.0000628485122321907
390,0.00129222869873047,0.0000909772308519254
391,0.00135660171508789,0.0000843341482903829
392,0.00132369995117187,0.0000786824658673603
393,0.00109577178955078,0.0000744461774635124
394,0.00107002258300781,0.0000910971152470103
395,0.00109481811523437,0.0000591470317967822
396,0.00114154815673828,0.0000565398990969574
397,0.00140142440795898,0.0000503893027702763
398,0.00132226943969727,0.0000567666576012646
399,0.000917434692382813,0.0000910646621405118
400,0.00115299224853516,0.0000791018089206707
401,0.00100469589233398,0.0000679823309916565
402,0.0010981559753418,0.0000968977221288139
403,0.00108909606933594,0.000103252587832859
404,0.00121831893920898,0.0000770575339223882
405,0.00116300582885742,0.0000662237378282822
406,0.000727176666259766,0.0000818536504640185
407,0.000977516174316406,0.0000830545758257591
408,0.00127506256103516,0.0000781329367934889
409,0.000827312469482422,0.000067527617024548
410,0.000763416290283203,0.0000803707580259561
411,0.00100803375244141,0.0000921863248717848
412,0.00110673904418945,0.0000707215578075369
413,0.00081634521484375,0.000045007466875217
414,0.000771522521972656,0.0000480340959273743
415,0.000931739807128906,0.0000656218716528215
416,0.000785350799560547,0.000066993499532223
417,0.000848293304443359,0.0000543834817139161
418,0.000888824462890625,0.0000776512878133974
419,0.00091552734375,0.0000665251923621952
420,0.00101327896118164,0.000065627068807358
421,0.00126075744628906,0.0000520222565058752
422,0.000747203826904297,0.0000411691658911462
423,0.0008087158203125,0.0000526089922383307
424,0.000728130340576172,0.0000630435710183655
425,0.000778675079345703,0.0000547979054776827
426,0.000836372375488281,0.0000497558496885131
427,0.00122833251953125,0.0000482100996719641
428,0.000618934631347656,0.0000437418504278774
429,0.00119543075561523,0.0000576559028632807
430,0.000736236572265625,0.0000538034194908233
431,0.000479221343994141,0.0000653266906738281
432,0.000718593597412109,0.0000506189090021682
433,0.00101900100708008,0.0000563445200829338
434,0.000693321228027344,0.0000553346871352526
435,0.000643253326416016,0.0000539258344588307
436,0.000823497772216797,0.000057074240785467
437,0.000783920288085938,0.0000637625963288857
438,0.000818729400634766,0.0000581946493149432
439,0.000704765319824219,0.0000496048174640998
440,0.000878334045410156,0.0000514708109458829
441,0.00112104415893555,0.0000661756525395606
442,0.000384807586669922,0.0000609148971631392
443,0.000981807708740234,0.0000500315579704904
444,0.000709056854248047,0.0000436182212988018
445,0.000759601593017578,0.0000547875312125289
446,0.000758647918701172,0.0000561960227972679
447,0.000513553619384766,0.0000704945320609143
448,0.000732421875,0.0000596713646353174
449,0.000813961029052734,0.0000500554114611667
450,0.000629425048828125,0.0000615378628529382
451,0.000745296478271484,0.0000558479936335455
452,0.000697135925292969,0.0000490516894055677
453,0.000656604766845703,0.000058156542385342
454,0.000720024108886719,0.0000540037817941727
455,0.000776290893554688,0.0000503588352631005
456,0.000709056854248047,0.0000704574300975567
457,0.000920772552490234,0.0000675461336528146
458,0.000601768493652344,0.0000630219276335021
459,0.000657558441162109,0.0000709350367417874
460,0.000514984130859375,0.0000555755702374781
461,0.000658512115478516,0.0000553120826757266
462,0.000720024108886719,0.0000474985820271034
463,0.000885963439941406,0.0000468842724945951
464,0.000678539276123047,0.0000487890869787004
465,0.000675678253173828,0.000060321314045021
466,0.000383377075195312,0.0000601098583966757
467,0.000933647155761719,0.0000743957660598986
468,0.000627040863037109,0.0000810861552473167
469,0.000645160675048828,0.0000643995018620839
470,0.000824451446533203,0.0000509647248734432
471,0.000607490539550781,0.0000605019735294692
472,0.000729560852050781,0.0000659036565625658
473,0.000672817230224609,0.0000608084237330287
474,0.000591754913330078,0.0000420557127849956
475,0.000861644744873047,0.0000532810850560166
476,0.000551700592041016,0.0000607644724779426
477,0.000767707824707031,0.0000629479232536643
478,0.000786304473876953,0.0000636090760388194
479,0.000832080841064453,0.0000599109409085424
480,0.000688552856445313,0.000057768187045123
481,0.000666141510009766,0.0000593168942262345
482,0.000524997711181641,0.0000605545643521032
483,0.000856399536132813,0.0000592171470903762
484,0.000352859497070312,0.0000781358468267045
485,0.00496530532836914,0.0000915750833889726
486,-0.00196647644042969,0.0000377891567598593
487,0.000542640686035156,0.0000512971299967603
488,0.000505924224853516,0.0000396148091994545
489,0.000727176666259766,0.000063077824523212
490,0.000544071197509766,0.000085435061474073
491,0.000620841979980469,0.0000675999713687667
492,0.000677108764648438,0.0000467105747080172
493,0.000644207000732422,0.000079421662688124
494,0.000363826751708984,0.0000596732698208876
495,0.000684261322021484,0.0000713218330318002
496,0.000453472137451172,0.0000813618902610692
497,0.000360012054443359,0.000097419593578502
498,0.000826835632324219,0.000109572987355937
499,0.000506877899169922,0.0000902696946961412
500,0.000349998474121094,0.0000781954786417949
501,0.0007171630859375,0.0000750151390956822
502,0.000580787658691406,0.00007224358342527
503,0.000642776489257813,0.000103777557839083
504,0.000568389892578125,0.0000746581427562686
505,0.000628948211669922,0.0000562020915914824
506,0.000524997711181641,0.0000649951960998643
507,0.000538825988769531,0.0000707231653166077
508,0.000607490539550781,0.0000713823792450408
509,0.000538349151611328,0.0000530265646385727
510,0.000533103942871094,0.0000573544126417049
511,0.000422954559326172,0.0000675865159603196
512,0.000565052032470703,0.0000681743742159406
513,0.000419139862060547,0.0000509970597164159
514,0.000490188598632813,0.0000491500927236828
515,0.0006256103515625,0.0000686181759527201
516,0.000453948974609375,0.0000471333692400416
517,0.000380992889404297,0.0000541960620283031
518,0.000465869903564453,0.0000586994095171897
519,0.000504016876220703,0.0000580215015198029
520,0.000420093536376953,0.0000627580019282614
521,0.000562667846679688,0.0000780222751055213
522,0.000497817993164063,0.0000602232305426651
523,0.000482559204101563,0.0000548611460128392
524,0.000527381896972656,0.0000634892157634477
525,0.000572681427001953,0.0000704767900805464
526,0.000456333160400391,0.0000682093845956655
527,0.000481605529785156,0.0000660139671853236
528,0.000568389892578125,0.0000524705074218306
529,0.000518321990966797,0.000043040992329101
530,0.000454425811767578,0.0000527018323436368
531,0.000552177429199219,0.0000515679049520758
532,0.000555038452148438,0.0000665713174577763
533,0.000574588775634766,0.0000715144466646049
534,0.000533103942871094,0.0000501948971269636
535,0.000437736511230469,0.0000494211293032767
536,0.000416755676269531,0.0000598919619297317
537,0.000545978546142578,0.0000546878381355723
538,0.00049591064453125,0.0000486759425687495
539,0.000443935394287109,0.0000623764245062555
540,0.000484466552734375,0.0000599185308168403
541,0.000545024871826172,0.000044977145200851
542,0.000481128692626953,0.0000559293602673074
543,0.000408649444580078,0.000058642247179326
544,0.000435352325439453,0.0000659950206691013
545,0.000346660614013672,0.0000636323063568584
546,0.0004425048828125,0.0000500201951673254
547,0.000667095184326172,0.0000436117047945003
548,0.000398635864257812,0.0000517219970460088
549,0.000357627868652344,0.0000556134014444051
550,0.000409603118896484,0.0000438949259676554
551,0.000406742095947266,0.000057797699258811
552,0.000467300415039063,0.0000586587233962898
553,0.000352382659912109,0.0000400720568401344
554,0.000366687774658203,0.0000411436144945344
555,0.000537395477294922,0.0000373861314710202
556,0.000441551208496094,0.0000472718571906804
557,0.000433444976806641,0.0000359561777525117
558,0.000309467315673828,0.0000441029262813606
559,0.000442028045654297,0.0000589265397298307
560,0.000452041625976563,0.0000545379568310974
561,0.000310420989990234,0.0000528547695419559
562,0.000318527221679687,0.0000549336274105632
563,0.000432491302490234,0.0000423533678588907
564,0.000388145446777344,0.0000356696824258566
565,0.000374794006347656,0.0000627362600249835
566,0.000402927398681641,0.0000673624260312868
567,0.000578880310058594,0.0000503170535311875
568,0.000433921813964844,0.0000359000116410998
569,0.000629425048828125,0.0000406012210033569
570,0.000642776489257813,0.0000501484450131793
571,0.000570774078369141,0.0000402821577724012
572,0.0000410079956054688,0.0000346741279966051
573,0.000833034515380859,0.0000410924640375722
574,0.000430583953857422,0.0000335831843876856
575,0.000213146209716797,0.0000345139201721145
576,0.000806331634521484,0.0000334619435287342
577,0.000649452209472656,0.0000429120327413638
578,0.000143527984619141,0.0000393209993898169
579,0.000468254089355469,0.0000472910929421136
580,0.000863552093505859,0.0000429279255968482
581,0.000894069671630859,0.0000374150087035286
582,-0.0000777244567871094,0.0000494464268885131
583,0.000162601470947266,0.0000473043129838556
584,0.000901222229003906,0.0000469230538877697
585,0.000580310821533203,0.0000479369591324588
586,0.0000853538513183594,0.0000377876525042705
587,0.000806808471679688,0.000031738339994908
588,0.0000929832458496094,0.0000374195662294245
589,0.000297069549560547,0.0000468866972714318
590,0.000497341156005859,0.0000418327801257439
591,0.000274658203125,0.0000333104118281803
592,0.00105810165405273,0.0000332429376871685
593,0.00037384033203125,0.0000355571557116439
594,0.000508308410644531,0.0000303728800855641
595,0.000393867492675781,0.0000262942294734797
596,0.000225543975830078,0.0000355115649813835
597,0.000660419464111328,0.0000376316368774906
598,0.000438690185546875,0.0000418653792190415
599,0.000578403472900391,0.0000411802102334906
600,0.000452041625976563,0.0000415915727374201
601,0.000313758850097656,0.0000419074488500973
602,0.00045013427734375,0.0000478740707321592
603,0.000445365905761719,0.0000453609752532232
604,0.000185012817382812,0.0000408788799708362
605,0.000608444213867188,0.0000312928358688557
606,0.000130653381347656,0.0000415635458376546
607,0.000395774841308594,0.0000500429181936042
608,0.000125885009765625,0.0000408997326425963
609,0.000247955322265625,0.0000392479274320191
610,0.000394344329833984,0.000033814277611464
611,0.0001068115234375,0.0000332549051109309
612,0.000246047973632812,0.0000289126152011028
613,0.000236034393310547,0.000032603250339454
614,0.0000705718994140625,0.0000291529480001143
615,0.000179290771484375,0.0000293143375266825
616,-0.0000772476196289063,0.0000430211775537108
617,0.000372886657714844,0.0000408371426833267
618,0.000234127044677734,0.0000352819221363127
619,0.000269889831542969,0.0000411318693418404
620,0.000258922576904297,0.0000475165297254681
621,0.00000619888305664063,0.0000369287213681931
622,0.000274658203125,0.0000466618721875193
623,0.0000476837158203125,0.0000429365317706697
624,0.000184535980224609,0.0000482407459328883
625,-0.0000176429748535156,0.0000390220643283172
626,0.0000643730163574219,0.0000351212498251348
627,0.000218868255615234,0.0000517933839682179
628,0.000057220458984375,0.0000439531618134967
629,0.000220775604248047,0.0000358453433507018
630,0.0000181198120117187,0.0000376316368774906
631,0.0000238418579101562,0.0000336330794803283
632,0.0000739097595214844,0.0000421002926771163
633,0.000176429748535156,0.0000405683066725366
634,0.0000405311584472656,0.0000386620555889597
635,0.0000753402709960938,0.0000374393090973734
636,0.0000896453857421875,0.0000494809027522005
637,-0.0001068115234375,0.0000502084847375333
638,0.0000162124633789062,0.000046631407282017
639,-0.00000619888305664063,0.0000426909088157564
640,0.0000810623168945313,0.0000407081833302487
641,0.000212669372558594,0.0000464163684669788
642,0.000193119049072266,0.0000489658596120693
643,0.000117301940917969,0.0000476515184418486
644,0.000163555145263672,0.0000444891879531795
645,0.000105857849121094,0.0000391609320298399
646,0.0000548362731933594,0.0000455947092827388
647,0.000072479248046875,0.000050886590598951
648,0.000111103057861328,0.0000558612237762736
649,0.0000238418579101562,0.0000626782447449525
650,0.0000171661376953125,0.0000513668941700877
651,0.000115394592285156,0.0000507837170135749
652,0.0000510215759277344,0.000041123576626163
653,0.000185489654541016,0.0000462236998534307
654,-0.000170230865478516,0.0000554301405037403
655,0.00317621231079102,0.000046548441865827
656,0.00102949142456055,0.0000357341651824859
657,-0.00452852249145508,0.0000494510250590618
658,0.000560760498046875,0.0000385110586909441
659,-0.00014495849609375,0.0000495704277822474
660,0.0000209808349609375,0.0000488554516708763
661,-0.0000143051147460937,0.0000368647861532411
662,-0.0000314712524414062,0.0000307569207932388
663,-0.0000538825988769531,0.0000386017277076716
664,-0.0000452995300292969,0.0000533770160288248
665,-0.00000810623168945313,0.0000723646537968163
666,-0.0000705718994140625,0.0000642138739227203
667,-0.0000224113464355469,0.0000437249534015122
668,-0.0000486373901367188,0.000040011723891827
669,-0.000126361846923828,0.0000330689233578026
670,-0.0000638961791992188,0.0000399313754141343
671,0.00000333786010742187,0.000037882303949997
672,-0.0000200271606445312,0.0000358889262582074
673,-0.0000967979431152344,0.0000527934324853304
674,-0.0000271797180175781,0.0000553459859029652
675,-0.0000233650207519531,0.0000443650788512129
676,-0.00000238418579101562,0.0000444853547161329
677,0.0000500679016113281,0.000038229584647629
678,-0.00000095367431640625,0.0000436651114212391
679,0.0000615119934082031,0.0000391086419003238
680,0.00000476837158203125,0.0000368940714484171
681,-0.0000567436218261719,0.0000446791582681887
682,-0.0000429153442382813,0.0000384194359349354
683,0.0000205039978027344,0.0000352778941057786
684,0.0000123977661132812,0.0000313934897105863
685,0.0000109672546386719,0.0000279061792152396
686,0.0000157356262207031,0.0000293782581218335
687,0.0000543594360351563,0.0000258664930305819
688,0.0000185966491699219,0.0000338453627086932
689,-0.00000667572021484375,0.0000349102119783843
690,0.00000524520874023438,0.0000392689224050775
691,0.0000119209289550781,0.0000292862070859526
692,0.0000224113464355469,0.0000394155740905133
693,0.0000162124633789062,0.0000511906398620221
694,-0.0000205039978027344,0.000044775745479229
695,0.0000405311584472656,0.0000586364309385798
696,0.000057220458984375,0.0000506514646072916
697,0.0000929832458496094,0.0000412801648568571
698,0.0000257492065429687,0.0000328481624572191
699,0.0000247955322265625,0.0000407765477339303
700,0.0000147819519042969,0.0000534515099766315
701,0.0000100135803222656,0.0000507680440630399
702,0.0000653266906738281,0.0000547231668713086
703,-0.0000357627868652344,0.000048987911340101
704,0.0000352859497070312,0.0000359790936200063
705,0.0000705718994140625,0.000037651268543964
706,0.000108718872070312,0.0000478431895956678
707,0.000102996826171875,0.0000265871460530005
708,-0.0000529289245605469,0.0000382533675868384
709,-0.00000238418579101562,0.0000433384384351677
710,0.0000805854797363281,0.0000371535406605597
711,-0.0000238418579101562,0.0000393513458042559
712,-0.0000271797180175781,0.0000499223682985219
713,0.0000638961791992188,0.0000541519925043517
714,-0.0000357627868652344,0.0000531732230933634
715,-0.0000457763671875,0.0000411995307085237
716,-0.0000882148742675781,0.0000390060373433189
717,-0.0000171661376953125,0.0000441029262813606
718,0.000049591064453125,0.000050810573681274
719,-0.0000109672546386719,0.0000448898562997883
720,-0.00005340576171875,0.000038539830498238
721,-0.000105381011962891,0.0000439570414600049
722,-0.0000958442687988281,0.0000445083491864073
723,-0.0000691413879394531,0.0000389345642608214
724,-0.0000777244567871094,0.000032618066632125
725,-0.000108242034912109,0.0000419474436746307
726,-0.00011444091796875,0.0000377658340651512
727,-0.0000910758972167969,0.0000367257490424532
728,-0.0000929832458496094,0.0000504208792578112
729,-0.0000891685485839844,0.0000449632409330499
730,-0.000132560729980469,0.0000444431672878448
731,-0.000159740447998047,0.0000579362052928108
732,-0.000136852264404297,0.0000445696097751573
733,-0.000132560729980469,0.0000476706009949254
734,-0.00016021728515625,0.0000591710532381553
735,-0.000182628631591797,0.0000561757887481486
736,-0.000230789184570312,0.0000498893369192189
737,-0.000187873840332031,0.0000510939414666893
738,-0.000337123870849609,0.0000507803589313988
739,-0.00018310546875,0.0000544858182780121
740,-0.00022125244140625,0.0000527180086397677
741,-0.000234127044677734,0.0000450125185017973
742,-0.000159740447998047,0.0000539110749879198
743,-0.000208854675292969,0.0000499826795893589
744,-0.000187873840332031,0.0000530897737873717
745,-0.000305652618408203,0.0000413503330014778
746,-0.000208854675292969,0.0000584101189865737
747,-0.000203132629394531,0.0000524336609118784
748,-0.000190258026123047,0.0000537124834732248
749,-0.000104904174804687,0.0000391986537425267
750,-0.000091552734375,0.0000400429664139119
751,-0.000239372253417969,0.0000403174206236419
752,-0.000151634216308594,0.0000476860999465019
753,-0.0000371932983398437,0.0000519216330915417
754,-0.00012969970703125,0.0000560319168913589
755,-0.0000891685485839844,0.000041828703452721
756,-0.0000262260437011719,0.000048083772925432
757,-0.0000166893005371094,0.0000489112678855902
758,-0.000135421752929687,0.0000502627984482535
759,-0.0000638961791992188,0.0000383987166690568
760,-0.0000796318054199219,0.0000329293950474158
761,-0.000130176544189453,0.0000489054566688356
762,-0.000209808349609375,0.0000473571562462773
763,-0.0000352859497070312,0.0000399434735668439
764,-0.0000629425048828125,0.0000458421334067697
765,-0.0000429153442382813,0.000046793252660168
766,-0.000101089477539062,0.0000595693483748547
767,-0.000143051147460937,0.0000522653550334731
768,0.000104904174804687,0.0000450667877255154
769,-0.000105381011962891,0.0000460413376886169
770,-0.000100612640380859,0.0000438547629538295
771,-0.000003814697265625,0.0000536107913058572
772,-0.0000219345092773437,0.0000495463408025543
773,0.0000262260437011719,0.0000399057436891676
774,-0.0000605583190917969,0.0000431715417562099
775,-0.0000753402709960938,0.0000657343846713665
776,-0.0000333786010742187,0.0000523935337959384
777,-0.0000514984130859375,0.0000342427517039847
778,0.0000329017639160156,0.0000452982751772896
779,-0.0000219345092773437,0.0000523891938883894
780,-0.0000524520874023438,0.0000509926009570879
781,-0.0000371932983398437,0.0000416980394756684
782,-0.0000824928283691406,0.0000469618032550032
783,0.00000619888305664063,0.0000345583597739473
784,-0.0000638961791992188,0.000042733495929099
785,-0.000000476837158203125,0.0000468588047623421
786,0.00000476837158203125,0.0000454285941358578
787,0.0000362396240234375,0.0000543897527513609
788,0.0000233650207519531,0.0000507960280822211
789,-0.000030517578125,0.0000452015469595111
790,0.00000619888305664063,0.0000417688665356856
791,-0.0000567436218261719,0.0000470452479721855
792,-0.0000615119934082031,0.0000526057506725223
793,-0.0000662803649902344,0.0000472465983819357
794,-0.00000905990600585938,0.0000521434023722098
795,-0.0000557899475097656,0.00005503700667964
796,-0.000144481658935547,0.000053923726210322
797,-0.0001373291015625,0.0000444546769205992
798,-0.0000433921813964844,0.0000606239893925202
799,-0.0000939369201660156,0.0000618915528177483
800,-0.0000667572021484375,0.0000496895435845215
801,-0.0000767707824707031,0.0000313717540815943
802,-0.0000786781311035156,0.0000363625461996442
803,-0.0000357627868652344,0.0000560238004406911
804,-0.000147342681884766,0.0000325622525635229
805,-0.000120162963867187,0.0000364850542398172
806,-0.000115394592285156,0.0000574237470748424
807,-0.0000944137573242188,0.0000563495641293235
808,-0.000156879425048828,0.0000511006161961654
809,-0.000188350677490234,0.0000653005812321941
810,-0.000103950500488281,0.0000555878426391376
811,-0.000129222869873047,0.000051303778290988
812,-0.000219821929931641,0.0000343571016831097
813,-0.000169277191162109,0.0000457651899520294
814,-0.000155448913574219,0.0000512960218639497
815,-0.000184059143066406,0.0000535641178736328
816,-0.000227928161621094,0.0000381223778116512
817,-0.000177860260009766,0.0000465740793116561
818,-0.000230789184570312,0.0000469860053815608
819,-0.000197410583496094,0.0000459931624210176
820,-0.000213623046875,0.000065666899993687
821,-0.000245571136474609,0.0000674686666710815
822,-0.000138759613037109,0.0000448531189586824
823,-0.000169754028320312,0.0000601561778333428
824,-0.000214576721191406,0.0000512860475912046
825,-0.000202178955078125,0.0000532949524217524
826,-0.000212669372558594,0.0000552318650471277
827,-0.000257492065429687,0.0000391246268544851
828,-0.000278472900390625,0.0000487844264172934
829,-0.000263690948486328,0.0000528461651270128
830,-0.000364303588867187,0.0000596351545450131
831,-0.000277519226074219,0.0000592890969939024
832,-0.000298500061035156,0.0000582200400778802
833,-0.000318527221679687,0.0000540584883587595
834,-0.000254631042480469,0.0000525754864206064
835,-0.000396728515625,0.0000492367558595785
836,-0.000277042388916016,0.000071953447379833
837,-0.000401496887207031,0.0000572462818370181
838,-0.000354766845703125,0.0000408413183314588
839,-0.000297069549560547,0.0000349752823274465
840,-0.000279903411865234,0.0000561990572762944
841,-0.000279426574707031,0.0000639584223922009
842,-0.000322341918945312,0.0000528536940666927
843,-0.000319004058837891,0.0000427893271915629
844,-0.000267505645751953,0.0000597046966055542
845,-0.000241279602050781,0.0000408503641048246
846,-0.000357627868652344,0.0000412388337065642
847,-0.000206947326660156,0.0000562142272143809
848,-0.000319480895996094,0.0000433712164567915
849,-0.000201225280761719,0.000060623051746235
850,-0.000200748443603516,0.0000516031665690528
851,-0.000215530395507812,0.0000547667767867472
852,-0.000153541564941406,0.0000639655320434448
853,-0.0000576972961425781,0.0000543709374691588
854,-0.000200271606445312,0.0000557144991644994
855,-0.00020599365234375,0.0000607307861744327
856,-0.000185012817382812,0.0000323485779874265
857,-0.000199794769287109,0.0000415046962231599
858,-0.0000700950622558594,0.0000641518785813985
859,-0.000132560729980469,0.0000799182491249676
860,-0.0000452995300292969,0.0000681960494274842
861,-0.000109672546386719,0.0000459919264942053
862,-0.000120639801025391,0.0000428775780124661
863,-0.000080108642578125,0.0000520069568061329
864,-0.0000128746032714844,0.0000444303753101202
865,-0.0000844001770019531,0.0000638605844222382
866,0.00000143051147460937,0.000049314046129912
867,-0.0000138282775878906,0.0000453020396290345
868,-0.000030517578125,0.0000515182774697374
869,-0.00000762939453125,0.0000524780902564911
870,0.0000410079956054688,0.000066434557378134
871,0.0000753402709960938,0.0000556154456414044
872,-0.0000567436218261719,0.0000521532126765904
873,-0.0000452995300292969,0.0000678366848931725
874,0.0000391006469726562,0.0000517274918454003
875,0.0000395774841308594,0.0000506323828258402
876,0.0000844001770019531,0.0000584052528959261
877,0.0000400543212890625,0.0000449594481137206
878,0.0000476837158203125,0.0000442650273707365
879,0.0000853538513183594,0.0000558164321765837
880,-0.00000286102294921875,0.0000528612219340378
881,-0.0000109672546386719,0.0000606652314816663
882,0.0000844001770019531,0.0000567115564867031
883,0.0000705718994140625,0.0000612545540524475
884,0.0000176429748535156,0.0000440113206016463
885,0.00012969970703125,0.000055179352006528
886,0.0000858306884765625,0.0000592497752063734
887,0.000064849853515625,0.0000627253862472738
888,0.0000352859497070312,0.0000522120357937385
889,0.000131607055664062,0.0000511650936891124
890,0.0000567436218261719,0.0000493370943860451
891,0.0000257492065429687,0.000048482873849764
892,0.000091552734375,0.0000590238888513897
893,0.000117778778076172,0.0000472634390876503
894,0.000103473663330078,0.000062146353481751
895,0.000149726867675781,0.0000545129365490919
896,0.0000691413879394531,0.0000678919667455966
897,0.0000743865966796875,0.0000695626808050327
898,0.0000739097595214844,0.0000617867624228027
899,0.0000386238098144531,0.0000614565222152013
900,0.0000653266906738281,0.0000556644838483449
901,0.000057220458984375,0.0000498448808963187
902,0.0000514984130859375,0.0000518756314246716
903,0.0000643730163574219,0.0000671206525983784
904,0.000116825103759766,0.0000669714351182144
905,0.000132560729980469,0.0000600521455017836
906,0.0000410079956054688,0.0000690245463240251
907,-0.0000467300415039063,0.0000485145194900518
908,0.0000448226928710938,0.0000717319055600807
909,0.00000524520874023438,0.000111864818426947
910,-0.0000567436218261719,0.0000455547970665042
911,-0.0000848770141601563,0.0000416161661599324
912,-0.0000329017639160156,0.0000595769818009151
913,0.0000143051147460937,0.0000860951904548063
914,-0.000150680541992187,0.0000989227387597302
915,-0.000140666961669922,0.0000564191259181452
916,-0.0000286102294921875,0.0000484863910519776
917,-0.000185012817382812,0.0000558764854330401
918,-0.000173568725585937,0.0000724211886912182
919,-0.0000948905944824219,0.0000539774608251405
920,-0.000210762023925781,0.0000488310120146324
921,-0.000232219696044922,0.0000697112441808938
922,-0.000260829925537109,0.000095095246041683
923,-0.000350475311279297,0.0000889783759063591
924,-0.000506401062011719,0.0000633834794832728
925,-0.000504493713378906,0.0000689437936665859
926,-0.000532627105712891,0.0000543060793773261
927,-0.000578403472900391,0.0000790399842262019
928,-0.000634193420410156,0.0000794688859581898
929,-0.000711917877197266,0.0000869309581048734
930,-0.000837802886962891,0.0000773784918142414
931,-0.000821113586425781,0.0000564070343779468
932,-0.000878334045410156,0.0000680608836983841
933,-0.000863075256347656,0.0000784089077229721
934,-0.00107574462890625,0.0000788022997762763
935,-0.00112295150756836,0.0000744782396818902
936,-0.00123071670532227,0.0000667077971611977
937,-0.00114011764526367,0.0000692481827566454
938,-0.00129842758178711,0.0000593638323871922
939,-0.00146913528442383,0.0000533503858392644
940,-0.0015559196472168,0.0000620548190498255
941,-0.00158214569091797,0.000102094387846094
942,-0.00167131423950195,0.0000631732756106537
943,-0.00180959701538086,0.000076929071386807
944,-0.00192642211914062,0.0000837551946733729
945,-0.00185251235961914,0.000117918657336553
946,-0.00223112106323242,0.000108270389355314
947,-0.0022587776184082,0.0000819785564954374
948,-0.00244283676147461,0.0000955912823886813
949,-0.00238656997680664,0.0000966910067528248
950,-0.00270557403564453,0.0000978202113949514
951,-0.00271224975585937,0.000104637239868478
952,-0.00296783447265625,0.000117321322941022
953,-0.00319528579711914,0.0000900199855187546
954,-0.00322961807250977,0.0000725090442446586
955,-0.00328683853149414,0.000105636382195733
956,-0.00355863571166992,0.000114566019345336
957,-0.00395441055297852,0.000139832852339556
958,-0.00399494171142578,0.000134139640598429
959,-0.00412178039550781,0.000101341078405649
960,-0.00420331954956055,0.000110259764549897
961,-0.00440883636474609,0.000114546171106358
962,-0.00450849533081055,0.000114319657614629
963,-0.00430679321289063,0.000142799792396386
964,-0.00428295135498047,0.0000969118003024304
965,-0.00415897369384766,0.000103171077546953
966,-0.00417375564575195,0.000144332865779451
967,-0.00427722930908203,0.000109487875660815
968,-0.00418949127197266,0.000109722292025678
969,-0.00400876998901367,0.000155147306702767
970,-0.00402736663818359,0.000137636714372395
971,-0.003875732421875,0.00014188930445402
972,-0.00366401672363281,0.000149875615576343
973,-0.00348615646362305,0.00010996034427338
974,-0.0033717155456543,0.000129853886237071
975,-0.00331401824951172,0.00014035222030912
976,-0.0034022331237793,0.000109618629802712
977,-0.00295734405517578,0.000105599784746172
978,-0.00306272506713867,0.000139249513614227
979,-0.00308656692504883,0.0000923662007986739
980,-0.00278186798095703,0.000103485748358778
981,-0.002655029296875,0.000139784062656977
982,-0.00274753570556641,0.000154636459798502
983,-0.00236749649047852,0.0001893421827129
984,-0.00250720977783203,0.00012359928197882
985,-0.00206184387207031,0.000130844672288074
986,-0.00184917449951172,0.000155989170301124
987,-0.00186586380004883,0.000201557211081105
988,-0.00183963775634766,0.000230102463173285
989,-0.00159692764282227,0.000213047512509956
990,-0.0015869140625,0.000212645850142312
991,-0.0013885498046875,0.000196271642343702
992,-0.00156307220458984,0.000177680556302432
993,-0.0010380744934082,0.000216486170418249
994,-0.000960826873779297,0.00018330900482983
995,-0.000778675079345703,0.00016205168934322
996,-0.000881195068359375,0.000189121095179576
997,-0.00069427490234375,0.000179918691151037
998,-0.000718593597412109,0.000192424916002527
999,-0.000368118286132812,0.000215509295485685
1000,-0.000637054443359375,0.000210427324866608
1001,-0.000284671783447266,0.000168463268026364
1002,-0.000254154205322266,0.00020520181700629
1003,-0.000477790832519531,0.000268523257757234
1004,-0.000391483306884766,0.000206271619808303
1005,-0.000227451324462891,0.000189164371768455
1006,0.000380039215087891,0.000159594483373176
1007,-0.0000863075256347656,0.000156350243345678
1008,0.000169754028320312,0.000237459159689657
1009,0.0000166893005371094,0.000235188538777777
1010,0.000108718872070312,0.00021089359854225
1011,0.0000920295715332031,0.000264785059190037
1012,0.000281333923339844,0.000226211869495285
1013,0.000226497650146484,0.000223224989014974
1014,0.000643730163574219,0.000205949496022404
1015,0.000455856323242188,0.000272670814134064
1016,0.000407695770263672,0.000292981415713231
1017,0.000288963317871094,0.000235029934703817
1018,0.0000934600830078125,0.000228484126104564
1019,0.000319957733154297,0.000288274781918912
1020,0.000372409820556641,0.000291774471235496
1021,0.0000181198120117187,0.000226814149274431
1022,-0.0000805854797363281,0.000246528038874433
1023,0.000410556793212891,0.000267743108956593
1024,0.000329971313476562,0.000399961503279299
1025,0.000430583953857422,0.000294276141615339
1026,0.000350475311279297,0.00030587236060484
1027,0.000421524047851563,0.000262958291723977
1028,0.00022125244140625,0.000334330523356592
1029,0.000110149383544922,0.000403637514233743
1030,-0.000500202178955078,0.000242522210041999
1031,0.000159263610839844,0.000303580165887125
1032,0.0000844001770019531,0.000283470767260121
1033,0.000298500061035156,0.000288867305000519
1034,0.000148773193359375,0.000371683477195988
1035,0.0000314712524414062,0.000549144188057605
1036,-0.0000615119934082031,0.000431516288524758
1037,-0.000543117523193359,0.000450441288104364
1038,-0.000891208648681641,0.000303130448337877
1039,-0.000400066375732422,0.000276762793350761
1040,0.000135421752929687,0.000350931415774747
1041,-0.000181674957275391,0.000394337122435015
1042,-0.0000185966491699219,0.000401722217312646
1043,-0.000522136688232422,0.000391318034274047
1044,-0.000340938568115234,0.000505789155394508
1045,-0.000204086303710937,0.000475461883932539
1046,-0.00151729583740234,0.000534656733564666
1047,-0.000946521759033203,0.000646160623786611
1048,-0.00204181671142578,0.000486444954263556
1049,-0.000965595245361328,0.000455772519887868
1050,-0.000952243804931641,0.000650593235629995
1051,-0.000630378723144531,0.000391169258283773
1052,-0.00157928466796875,0.000323845106572324
1053,-0.00128650665283203,0.0004090540273037
1054,-0.00151681900024414,0.000457087653400611
1055,-0.00193500518798828,0.000817538663574323
1056,-0.00129175186157227,0.000859467463504209
1057,-0.00202608108520508,0.000662286817635255
1058,-0.00187778472900391,0.00053737157143983
1059,-0.00312995910644531,0.000557794316480288
1060,-0.00310230255126953,0.000558146397649288
1061,-0.00172328948974609,0.000775407011449898
1062,-0.00187921524047852,0.000791712824543517
1063,-0.00239133834838867,0.000874123540931765
1064,-0.00205039978027344,0.00106489513564302
1065,-0.00147724151611328,0.000968587618531649
1066,-0.00202465057373047,0.000773734962693953
1067,-0.00242233276367187,0.00063254996729047
1068,-0.00124931335449219,0.000876052515060637
1069,-0.000306606292724609,0.000840221170519399
1070,-0.00284099578857422,0.00130067192511756
1071,0.000103950500488281,0.00117648628077906
1072,-0.00144529342651367,0.000886439122840003
1073,-0.00290393829345703,0.00078105402515037
1074,-0.00263547897338867,0.000899249647895592
1075,-0.00178241729736328,0.000891937893317027
1076,-0.00135087966918945,0.00131633037269224
1077,-0.0019831657409668,0.00125161606659716
1078,-0.00136756896972656,0.000755849318227967
1079,-0.00286865234375,0.000991204877186557
1080,-0.000675201416015625,0.00149279003560822
1081,-0.00119781494140625,0.00121587753161256
1082,-0.00292634963989258,0.00103098501247149
1083,-0.00373458862304687,0.00171771543967668
1084,-0.00259304046630859,0.00149130758335823
1085,-0.00141429901123047,0.00158294768928191
1086,-0.00371932983398437,0.00116550082914496
1087,-0.00502300262451172,0.00160308085551839
1088,-0.00168609619140625,0.00136987473156828
1089,-0.00328445434570312,0.00172407436388548
1090,-0.0033879280090332,0.00172181084490856
1091,-0.0000462532043457031,0.0015135072803223
1092,-0.00273847579956055,0.00171842691245861
1093,-0.00405550003051758,0.0023606288622339
1094,-0.00448513031005859,0.0018085688533676
1095,-0.0031285285949707,0.00145479570758704
1096,-0.0051732063293457,0.00148986272564762
1097,-0.00361919403076172,0.00153496895683767
1098,-0.00314950942993164,0.00166334799081218
1099,-0.0044703483581543,0.00182761823526097
1100,-0.00680732727050781,0.00233823206168254
